300.00000	39.60920
302.00000	26.42209
304.00000	46.57548
306.00000	73.16606
308.00000	54.60496
310.00000	41.63269
312.00000	39.27438
314.00000	36.44893
316.00000	39.92210
318.00000	59.72218
320.00000	59.74066
322.00000	41.55618
324.00000	31.17995
326.00000	35.90714
328.00000	29.11200
330.00000	30.17899
332.00000	32.17628
334.00000	27.14806
336.00000	29.88417
338.00000	23.00215
340.00000	27.45966
342.00000	26.20420
344.00000	2.89044
346.00000	43.33482
348.00000	79.78476
350.00000	97.11731
352.00000	123.46254
354.00000	133.21243
356.00000	127.09138
358.00000	113.32594
360.00000	96.92152
362.00000	80.59271
364.00000	68.85312
366.00000	54.48178
368.00000	43.17194
370.00000	43.53790
372.00000	46.34424
374.00000	58.80006
376.00000	62.01518
378.00000	52.06923
380.00000	54.18915
382.00000	47.38740
384.00000	42.15039
386.00000	49.90455
388.00000	66.05128
390.00000	88.72747
392.00000	113.09544
394.00000	117.57118
396.00000	107.08694
398.00000	116.19141
400.00000	92.01947
402.00000	76.62410
404.00000	79.91574
406.00000	50.58463
408.00000	37.88050
410.00000	45.71708
412.00000	50.09222
414.00000	48.20752
416.00000	63.78965
418.00000	55.27981
420.00000	39.43295
422.00000	39.66856
424.00000	35.65978
426.00000	30.97234
428.00000	30.99029
430.00000	33.51612
432.00000	42.19517
434.00000	73.25066
436.00000	91.17069
438.00000	96.70189
440.00000	116.02635
442.00000	154.32683
444.00000	206.14503
446.00000	269.16989
448.00000	346.38840
450.00000	447.26389
452.00000	590.31140
454.00000	797.78986
456.00000	1090.78333
458.00000	1462.20459
460.00000	1848.59448
462.00000	2143.51538
464.00000	2246.18091
466.00000	2123.59595
468.00000	1832.78467
470.00000	1474.38708
472.00000	1137.03320
474.00000	856.84631
476.00000	637.11719
478.00000	489.58594
480.00000	389.79843
482.00000	326.94434
484.00000	290.78534
486.00000	255.87144
488.00000	224.23659
490.00000	195.86363
492.00000	168.78104
494.00000	144.26698
496.00000	125.76234
498.00000	115.36057
500.00000	109.57368
502.00000	101.98604
504.00000	90.15631
506.00000	79.77161
508.00000	69.65217
510.00000	57.49684
512.00000	46.43764
514.00000	40.11782
516.00000	34.59392
518.00000	27.70006
520.00000	27.85265
522.00000	41.97860
524.00000	24.65236
526.00000	9.43941
528.00000	23.99281
530.00000	20.42124
532.00000	13.47554
534.00000	18.05823
536.00000	26.32919
538.00000	25.50530
540.00000	26.33545
542.00000	27.55410
544.00000	24.88357
546.00000	23.32400
548.00000	32.34362
550.00000	34.93767
552.00000	29.40659
554.00000	24.67487
556.00000	24.76198
558.00000	24.92813
560.00000	17.07564
562.00000	13.45118
564.00000	21.11510
566.00000	15.25644
568.00000	19.10840
570.00000	18.05160
572.00000	11.85605
574.00000	35.10154
576.00000	40.03665
578.00000	46.56805
580.00000	48.90944
582.00000	20.41288
584.00000	15.24816
586.00000	17.11568
588.00000	27.77668
590.00000	47.95079
592.00000	42.87828
594.00000	38.81512
596.00000	34.93021
598.00000	27.88590
600.00000	29.79205
602.00000	33.23594
604.00000	29.57938
606.00000	24.75271
608.00000	25.83216
610.00000	23.78599
612.00000	21.77389
614.00000	28.83488
616.00000	39.64902
618.00000	38.05411
620.00000	34.84080
622.00000	30.98020
624.00000	30.63454
626.00000	35.69194
628.00000	31.11036
630.00000	37.61782
632.00000	33.14523
634.00000	15.04869
636.00000	33.64280
638.00000	27.44530
640.00000	25.94959
642.00000	33.01355
644.00000	11.02750
646.00000	32.28521
648.00000	37.90924
650.00000	20.85348
652.00000	21.90882
654.00000	17.81041
656.00000	12.84768
658.00000	19.64283
660.00000	35.23380
662.00000	42.46391
664.00000	40.14277
666.00000	37.75377
668.00000	47.19715
670.00000	60.76686
672.00000	47.84826
674.00000	44.63544
676.00000	46.50875
678.00000	35.30842
680.00000	29.53050
682.00000	26.04612
684.00000	33.17244
686.00000	38.35030
688.00000	25.71023
690.00000	36.50778
692.00000	59.61257
694.00000	64.60815
696.00000	54.53886
698.00000	64.79113
700.00000	57.53524
702.00000	48.31904
704.00000	51.07492
706.00000	42.51728
708.00000	41.96247
710.00000	35.74427
712.00000	21.50653
714.00000	15.77188
716.00000	19.13778
718.00000	24.23712
720.00000	21.77676
722.00000	16.04081
724.00000	19.79748
726.00000	14.62755
728.00000	10.57975
730.00000	11.80412
732.00000	10.83223
734.00000	22.01945
736.00000	25.20299
738.00000	19.74306
740.00000	19.17146
742.00000	19.36683
744.00000	19.67638
746.00000	29.32043
748.00000	33.05407
750.00000	12.08868
752.00000	18.71673
754.00000	28.20210
756.00000	28.36500
758.00000	32.55620
760.00000	27.14972
762.00000	28.08766
764.00000	38.17665
766.00000	43.12790
768.00000	34.95943
770.00000	32.93991
772.00000	40.70804
774.00000	44.48293
776.00000	35.66024
778.00000	30.87714
780.00000	32.97562
782.00000	39.47102
784.00000	45.23856
786.00000	44.08217
788.00000	43.62068
790.00000	54.11740
792.00000	67.25435
794.00000	67.81957
796.00000	72.83385
798.00000	74.34989
800.00000	80.30185
802.00000	90.35221
804.00000	66.16914
806.00000	54.14332
808.00000	51.58002
810.00000	44.39595
812.00000	46.42650
814.00000	24.00451
816.00000	15.95502
818.00000	24.64786
820.00000	15.38784
822.00000	20.28008
824.00000	23.49880
826.00000	20.70875
828.00000	21.42836
830.00000	22.09846
832.00000	18.61856
834.00000	20.44260
836.00000	27.92907
838.00000	31.68444
840.00000	40.08787
842.00000	42.12283
844.00000	37.42735
846.00000	35.29514
848.00000	33.80384
850.00000	31.48386
852.00000	28.34949
854.00000	29.85451
856.00000	37.86609
858.00000	30.99380
860.00000	21.79244
862.00000	16.15860
864.00000	12.87355
866.00000	29.43984
868.00000	24.43787
870.00000	14.89906
872.00000	21.71262
874.00000	13.96990
876.00000	33.26625
878.00000	41.99430
880.00000	26.17825
882.00000	25.38393
884.00000	21.98111
886.00000	33.66855
888.00000	40.22387
890.00000	22.80478
892.00000	23.48980
894.00000	20.32044
896.00000	27.36054
898.00000	37.71244
900.00000	17.03971
902.00000	27.25808
904.00000	39.86984
906.00000	38.24215
908.00000	43.81851
910.00000	47.99856
912.00000	51.65319
914.00000	47.74431
916.00000	36.17121
918.00000	30.64412
920.00000	21.90084
922.00000	25.98724
924.00000	36.02108
926.00000	30.57655
928.00000	37.06938
930.00000	25.20831
932.00000	14.30335
934.00000	26.17327
936.00000	13.93393
938.00000	12.27145
940.00000	16.48710
942.00000	17.12148
944.00000	29.69272
946.00000	37.08859
948.00000	30.19238
950.00000	27.49478
952.00000	39.09246
954.00000	32.40446
956.00000	24.83019
958.00000	29.69301
960.00000	41.93053
962.00000	47.44069
964.00000	31.63696
966.00000	27.41723
968.00000	49.83748
970.00000	70.64613
972.00000	65.33441
974.00000	43.70850
976.00000	34.82003
978.00000	40.89961
980.00000	29.08187
982.00000	27.49527
984.00000	29.23796
986.00000	30.96447
988.00000	44.56609
990.00000	33.99934
992.00000	26.33239
994.00000	29.25514
996.00000	34.81593
998.00000	65.28757
1000.00000	67.28248
1002.00000	63.66281
1004.00000	77.24081
1006.00000	68.63988
1008.00000	67.90014
1010.00000	71.40129
1012.00000	69.87766
1014.00000	62.60981
1016.00000	37.75796
1018.00000	19.00041
1020.00000	16.03077
1022.00000	18.31156
1024.00000	18.41254
1026.00000	22.87439
1028.00000	29.17361
1030.00000	31.90958
1032.00000	32.20754
1034.00000	35.97091
1036.00000	44.18079
1038.00000	48.84597
1040.00000	47.38548
1042.00000	51.67644
1044.00000	51.43242
1046.00000	52.45366
1048.00000	52.49097
1050.00000	36.87119
1052.00000	35.24366
1054.00000	42.67564
1056.00000	53.41426
1058.00000	68.82190
1060.00000	69.03347
1062.00000	47.35342
1064.00000	38.08393
1066.00000	57.39757
1068.00000	67.64133
1070.00000	72.83910
1072.00000	61.85581
1074.00000	54.17056
1076.00000	81.45802
1078.00000	93.59109
1080.00000	86.29568
1082.00000	78.62592
1084.00000	83.26639
1086.00000	92.63760
1088.00000	76.11859
1090.00000	71.31637
1092.00000	87.23373
1094.00000	71.58499
1096.00000	58.93638
1098.00000	49.41776
1100.00000	41.16842
1102.00000	45.77573
1104.00000	58.00118
1106.00000	52.57812
1108.00000	46.51831
1110.00000	49.35825
1112.00000	31.41940
1114.00000	26.50345
1116.00000	25.57646
1118.00000	30.88629
1120.00000	54.69452
1122.00000	45.06803
1124.00000	32.69663
1126.00000	38.39698
1128.00000	48.25963
1130.00000	50.35361
1132.00000	42.29613
1134.00000	44.39859
1136.00000	58.03345
1138.00000	57.45257
1140.00000	51.48650
1142.00000	72.08784
1144.00000	92.47818
1146.00000	71.39702
1148.00000	56.34655
1150.00000	82.41468
1152.00000	88.28770
1154.00000	63.18267
1156.00000	98.44050
1158.00000	115.85223
1160.00000	114.16437
1162.00000	102.42355
1164.00000	71.45492
1166.00000	67.29967
1168.00000	67.44504
1170.00000	57.37996
1172.00000	43.80415
1174.00000	28.70137
1176.00000	29.53576
1178.00000	31.86826
1180.00000	31.09706
1182.00000	41.05275
1184.00000	36.03700
1186.00000	39.65816
1188.00000	49.55124
1190.00000	44.18250
1192.00000	43.93484
1194.00000	49.05227
1196.00000	56.70534
1198.00000	58.61801
1200.00000	48.46079
1202.00000	54.78298
1204.00000	60.07957
1206.00000	49.65485
1208.00000	42.02195
1210.00000	57.18598
1212.00000	71.78344
1214.00000	69.28293
1216.00000	59.92382
1218.00000	63.74861
1220.00000	73.86332
1222.00000	67.57716
1224.00000	56.00687
1226.00000	72.11581
1228.00000	88.49683
1230.00000	79.30317
1232.00000	63.87999
1234.00000	64.30394
1236.00000	55.34862
1238.00000	59.72340
1240.00000	68.58074
1242.00000	70.15649
1244.00000	71.78070
1246.00000	43.47685
1248.00000	41.22429
1250.00000	61.13898
1252.00000	49.11615
1254.00000	50.73174
1256.00000	60.23029
1258.00000	70.62069
1260.00000	79.57659
1262.00000	73.81786
1264.00000	59.21325
1266.00000	70.15560
1268.00000	90.08852
1270.00000	72.01675
1272.00000	65.32543
1274.00000	77.58625
1276.00000	96.24023
1278.00000	99.63850
1280.00000	68.13242
1282.00000	62.14228
1284.00000	76.97070
1286.00000	85.31590
1288.00000	94.88657
1290.00000	98.05950
1292.00000	83.72641
1294.00000	71.77953
1296.00000	83.70466
1298.00000	88.80950
1300.00000	85.96674
1302.00000	87.59695
1304.00000	84.42157
1306.00000	61.56694
1308.00000	85.92104
1310.00000	91.45480
1312.00000	69.17661
1314.00000	86.94609
1316.00000	63.39989
1318.00000	45.16249
1320.00000	53.43245
1322.00000	63.38788
1324.00000	75.55232
1326.00000	58.43022
1328.00000	47.36917
1330.00000	59.50252
1332.00000	52.41026
1334.00000	42.64836
1336.00000	53.88980
1338.00000	62.10447
1340.00000	39.67752
1342.00000	28.75784
1344.00000	32.31961
1346.00000	41.87621
1348.00000	41.86736
1350.00000	23.21019
1352.00000	34.34534
1354.00000	63.87778
1356.00000	69.20184
1358.00000	43.37501
1360.00000	39.00490
1362.00000	48.71122
1364.00000	46.86190
1366.00000	45.56301
1368.00000	76.92923
1370.00000	54.48495
1372.00000	27.12185
1374.00000	33.74290
1376.00000	23.99708
1378.00000	42.20606
1380.00000	42.86957
1382.00000	28.80017
1384.00000	45.29406
1386.00000	59.22569
1388.00000	51.40014
1390.00000	46.87571
1392.00000	59.52655
1394.00000	60.66315
1396.00000	48.73452
1398.00000	33.95026
1400.00000	43.47852
1402.00000	73.34351
1404.00000	45.59248
1406.00000	30.15853
1408.00000	38.49877
1410.00000	32.35139
1412.00000	31.18463
1414.00000	42.78298
1416.00000	43.22879
1418.00000	32.42050
1420.00000	37.21413
1422.00000	38.33914
1424.00000	47.23084
1426.00000	52.81702
1428.00000	39.55196
1430.00000	37.32495
1432.00000	37.53820
1434.00000	29.48805
1436.00000	36.21120
1438.00000	73.10310
1440.00000	43.29991
1442.00000	19.57568
1444.00000	42.08560
1446.00000	51.64101
1448.00000	43.97912
1450.00000	29.19096
1452.00000	35.31507
1454.00000	57.36979
1456.00000	46.78910
1458.00000	45.51328
1460.00000	53.65219
1462.00000	45.33953
1464.00000	23.73888
1466.00000	29.29597
1468.00000	41.45979
1470.00000	49.54578
1472.00000	63.96101
1474.00000	76.20103
1476.00000	72.92601
1478.00000	60.46362
1480.00000	57.14999
1482.00000	65.63538
1484.00000	52.75414
1486.00000	36.74610
1488.00000	41.23096
1490.00000	54.05612
1492.00000	44.02071
1494.00000	41.49160
1496.00000	55.40683
1498.00000	58.39355
1500.00000	36.71299
1502.00000	46.48849
1504.00000	71.77347
1506.00000	66.86239
1508.00000	33.35846
1510.00000	33.31235
1512.00000	66.66353
1514.00000	65.71886
1516.00000	34.79615
1518.00000	89.73164
1520.00000	68.68513
1522.00000	20.92631
1524.00000	41.83568
1526.00000	68.34947
1528.00000	65.97049
1530.00000	58.85244
1532.00000	62.23376
1534.00000	54.50861
1536.00000	21.70875
1538.00000	42.82732
1540.00000	67.72945
1542.00000	43.51652
1544.00000	47.85463
1546.00000	62.59926
1548.00000	50.54559
1550.00000	29.21650
1552.00000	40.73534
1554.00000	52.36515
1556.00000	43.24840
1558.00000	35.00187
1560.00000	43.70449
1562.00000	38.51162
1564.00000	24.97192
1566.00000	29.87900
1568.00000	52.38944
1570.00000	55.39370
1572.00000	31.15477
1574.00000	52.20721
1576.00000	86.25932
1578.00000	53.30201
1580.00000	27.46219
1582.00000	75.39422
1584.00000	109.85496
1586.00000	78.15631
1588.00000	86.70539
1590.00000	127.61143
1592.00000	104.10887
1594.00000	79.10065
1596.00000	157.92714
1598.00000	136.43376
1600.00000	84.94706
1602.00000	90.87517
1604.00000	126.60387
1606.00000	122.90939
1608.00000	105.81373
1610.00000	112.99730
1612.00000	121.93179
1614.00000	90.91444
1616.00000	84.88251
1618.00000	92.19504
1620.00000	82.96436
1622.00000	73.67583
1624.00000	103.83034
1626.00000	90.66977
1628.00000	52.83856
1630.00000	52.89915
1632.00000	68.14339
1634.00000	33.51723
1636.00000	42.04079
1638.00000	91.19508
1640.00000	71.03114
1642.00000	35.61568
1644.00000	65.60328
1646.00000	90.28522
1648.00000	60.45587
1650.00000	85.49087
1652.00000	71.49423
1654.00000	43.09817
1656.00000	55.45072
1658.00000	75.41714
1660.00000	53.27656
1662.00000	46.38398
1664.00000	78.18507
1666.00000	94.34788
1668.00000	53.79457
1670.00000	47.78565
1672.00000	68.48508
1674.00000	65.69010
1676.00000	54.38389
1678.00000	59.72322
1680.00000	57.86586
1682.00000	48.81503
1684.00000	57.85077
1686.00000	63.35609
1688.00000	43.07710
1690.00000	50.67072
1692.00000	90.42918
1694.00000	66.87562
1696.00000	81.48506
1698.00000	100.81223
1700.00000	67.39631
1702.00000	29.81912
1704.00000	61.86429
1706.00000	66.80351
1708.00000	35.58809
1710.00000	42.36495
1712.00000	67.67101
1714.00000	59.10862
1716.00000	58.74167
1718.00000	81.70239
1720.00000	69.49945
1722.00000	75.40366
1724.00000	71.67069
1726.00000	55.82747
1728.00000	58.14212
1730.00000	52.70054
1732.00000	91.97820
1734.00000	92.72760
1736.00000	53.83455
1738.00000	139.43898
1740.00000	110.63291
1742.00000	91.07697
1744.00000	139.02016
1746.00000	86.00669
1748.00000	22.62968
1750.00000	49.19167
1752.00000	79.90366
1754.00000	36.57667
1756.00000	54.01798
1758.00000	83.88111
1760.00000	71.53362
1762.00000	62.44086
1764.00000	107.45071
1766.00000	62.18423
1768.00000	68.52274
1770.00000	118.80870
1772.00000	70.72777
1774.00000	45.28273
1776.00000	109.00557
1778.00000	111.62849
1780.00000	33.10627
1782.00000	98.16580
1784.00000	113.62984
1786.00000	81.99537
1788.00000	96.31013
1790.00000	130.08820
1792.00000	69.34174
1794.00000	76.94395
1796.00000	106.95924
1798.00000	59.76845
1800.00000	88.12778
1802.00000	80.28714
1804.00000	61.86081
1806.00000	79.99448
1808.00000	88.19961
1810.00000	110.85447
1812.00000	107.23145
1814.00000	101.60990
1816.00000	110.63471
1818.00000	34.98045
1820.00000	68.48566
1822.00000	92.08913
1824.00000	24.04765
1826.00000	76.10936
1828.00000	54.66248
1830.00000	57.16593
1832.00000	109.92177
1834.00000	83.72804
1836.00000	82.26094
1838.00000	118.79401
1840.00000	96.40930
1842.00000	34.44962
1844.00000	102.14632
1846.00000	56.02323
1848.00000	26.44567
1850.00000	95.84562
1852.00000	81.14649
1854.00000	77.93090
1856.00000	87.99442
1858.00000	59.03487
1860.00000	15.50953
1862.00000	61.34399
1864.00000	63.38609
1866.00000	39.45401
1868.00000	73.16364
1870.00000	110.73573
1872.00000	46.27226
1874.00000	77.30994
1876.00000	136.07773
1878.00000	30.15964
1880.00000	91.50202
1882.00000	109.81317
1884.00000	54.81918
1886.00000	80.64855
1888.00000	135.10934
1890.00000	55.57058
1892.00000	61.01229
1894.00000	146.62727
1896.00000	61.97546
1898.00000	138.24745
1900.00000	151.88916
1902.00000	89.66494
1904.00000	126.81268
1906.00000	108.57242
1908.00000	93.49747
1910.00000	116.97815
1912.00000	111.49207
1914.00000	44.35998
1916.00000	104.70573
1918.00000	90.61753
1920.00000	67.09588
1922.00000	202.72412
1924.00000	87.94100
1926.00000	77.36934
1928.00000	140.83257
1930.00000	57.12379
1932.00000	23.18138
1934.00000	136.12009
1936.00000	122.65049
1938.00000	44.19578
1940.00000	180.05537
1942.00000	72.61916
1944.00000	59.14426
1946.00000	139.34567
1948.00000	68.44585
1950.00000	93.84660
1952.00000	151.64351
1954.00000	127.88703
1956.00000	109.37077
1958.00000	213.64320
1960.00000	116.64636
1962.00000	171.75291
1964.00000	235.24979
1966.00000	5.81807
1968.00000	179.59824
1970.00000	124.14105
1972.00000	21.61858
1974.00000	173.85051
1976.00000	50.69456
1978.00000	84.80745
1980.00000	132.19183
1982.00000	85.40960
1984.00000	144.86444
1986.00000	127.23470
1988.00000	77.28247
1990.00000	81.57529
1992.00000	104.15741
1994.00000	56.95217
1996.00000	93.04787
1998.00000	84.31661
2000.00000	14.58821
2002.00000	14.54770
2004.00000	19.28160
2006.00000	22.21470
2008.00000	21.86387
2010.00000	27.92482
2012.00000	42.89707
2014.00000	35.18868
2016.00000	17.84274
2018.00000	23.44649
2020.00000	36.55812
2022.00000	54.85847
2024.00000	59.41872
2026.00000	47.01372
2028.00000	45.96143
2030.00000	52.90721
2032.00000	41.15798
2034.00000	20.42762
2036.00000	27.55855
2038.00000	47.92441
2040.00000	34.28380
2042.00000	13.09987
2044.00000	26.00590
2046.00000	32.93734
2048.00000	24.79924
2050.00000	19.25014
2052.00000	22.53842
2054.00000	21.80035
2056.00000	29.55126
2058.00000	48.14593
2060.00000	55.91974
2062.00000	39.47211
2064.00000	34.11645
2066.00000	38.61821
2068.00000	29.63249
2070.00000	19.20117
2072.00000	54.95087
2074.00000	68.46474
2076.00000	56.45811
2078.00000	47.53625
2080.00000	39.10991
2082.00000	29.14292
2084.00000	39.02660
2086.00000	56.32263
2088.00000	48.91750
2090.00000	35.08400
2092.00000	44.34297
2094.00000	52.10996
2096.00000	39.11016
2098.00000	47.02565
2100.00000	69.52361
2102.00000	63.97335
2104.00000	41.56997
2106.00000	55.53798
2108.00000	60.69507
2110.00000	45.03891
2112.00000	41.82991
2114.00000	66.25548
2116.00000	67.45259
2118.00000	60.24792
2120.00000	53.57413
2122.00000	41.31542
2124.00000	30.30506
2126.00000	38.81123
2128.00000	36.33918
2130.00000	28.26016
2132.00000	53.63763
2134.00000	58.35730
2136.00000	31.20139
2138.00000	16.03259
2140.00000	37.43742
2142.00000	42.88723
2144.00000	37.33746
2146.00000	31.25190
2148.00000	23.53131
2150.00000	17.13488
2152.00000	31.55480
2154.00000	34.20421
2156.00000	23.16356
2158.00000	39.20868
2160.00000	62.71144
2162.00000	44.02230
2164.00000	17.76337
2166.00000	40.50790
2168.00000	65.11002
2170.00000	44.16675
2172.00000	34.20257
2174.00000	71.60553
2176.00000	85.35283
2178.00000	47.50669
2180.00000	17.19147
2182.00000	26.23633
2184.00000	40.64652
2186.00000	39.96663
2188.00000	45.24556
2190.00000	51.92299
2192.00000	51.70201
2194.00000	69.53078
2196.00000	67.57320
2198.00000	41.03833
2200.00000	24.90841
2202.00000	38.85890
2204.00000	33.13558
2206.00000	26.15952
2208.00000	41.26584
2210.00000	60.70792
2212.00000	58.57386
2214.00000	54.80705
2216.00000	60.77658
2218.00000	65.24090
2220.00000	59.59405
2222.00000	64.22327
2224.00000	68.25233
2226.00000	55.52862
2228.00000	36.70319
2230.00000	31.14303
2232.00000	26.70559
2234.00000	31.80510
2236.00000	52.43219
2238.00000	35.87377
2240.00000	18.93849
2242.00000	34.93245
2244.00000	54.07648
2246.00000	24.62473
2248.00000	21.46014
2250.00000	57.97168
2252.00000	86.03305
2254.00000	70.54290
2256.00000	42.97641
2258.00000	38.75046
2260.00000	44.85025
2262.00000	34.28839
2264.00000	33.04585
2266.00000	49.41919
2268.00000	56.28062
2270.00000	39.64605
2272.00000	31.28619
2274.00000	43.81295
2276.00000	47.34594
2278.00000	28.81542
2280.00000	20.71437
2282.00000	50.84624
2284.00000	73.07090
2286.00000	62.76884
2288.00000	52.62046
2290.00000	78.03120
2292.00000	85.20567
2294.00000	63.68733
2296.00000	45.57318
2298.00000	46.88439
2300.00000	53.65421
2302.00000	50.09946
2304.00000	41.96907
2306.00000	51.92178
2308.00000	81.80180
2310.00000	78.46185
2312.00000	55.64795
2314.00000	60.46791
2316.00000	65.54945
2318.00000	45.46144
2320.00000	30.78243
2322.00000	50.84220
2324.00000	73.68079
2326.00000	47.96023
2328.00000	55.51160
2330.00000	82.72980
2332.00000	39.73472
2334.00000	37.63584
2336.00000	59.69248
2338.00000	51.42168
2340.00000	24.20002
2342.00000	49.62381
2344.00000	90.27967
2346.00000	85.72750
2348.00000	42.92728
2350.00000	30.39451
2352.00000	48.52782
2354.00000	68.36328
2356.00000	60.09943
2358.00000	31.33974
2360.00000	41.42165
2362.00000	59.74802
2364.00000	61.09849
2366.00000	59.49225
2368.00000	76.76261
2370.00000	103.94338
2372.00000	88.30962
2374.00000	41.49998
2376.00000	44.14639
2378.00000	62.49087
2380.00000	56.06938
2382.00000	45.73901
2384.00000	68.31776
2386.00000	83.52090
2388.00000	62.04957
2390.00000	38.86282
2392.00000	47.66577
2394.00000	60.33039
2396.00000	77.05699
2398.00000	80.78911
2400.00000	74.90406
2402.00000	79.42525
2404.00000	55.02661
2406.00000	31.89201
2408.00000	40.03198
2410.00000	61.21912
2412.00000	55.69707
2414.00000	38.82857
2416.00000	41.36251
2418.00000	54.12181
2420.00000	40.41399
2422.00000	60.64244
2424.00000	91.54987
2426.00000	75.07007
2428.00000	23.98928
2430.00000	41.08786
2432.00000	78.27199
2434.00000	63.75361
2436.00000	32.19476
2438.00000	89.72413
2440.00000	86.99384
2442.00000	35.10702
2444.00000	48.61332
2446.00000	111.85100
2448.00000	90.44609
2450.00000	48.42336
2452.00000	57.78659
2454.00000	74.29456
2456.00000	67.78994
2458.00000	49.89798
2460.00000	45.95333
2462.00000	57.32047
2464.00000	50.64036
2466.00000	28.17661
2468.00000	31.28065
2470.00000	67.38840
2472.00000	84.23348
2474.00000	78.18745
2476.00000	100.76499
2478.00000	110.09283
2480.00000	50.97754
2482.00000	77.99829
2484.00000	85.99077
2486.00000	35.54616
2488.00000	22.01806
2490.00000	81.43169
2492.00000	72.56094
2494.00000	43.32759
2496.00000	72.17513
2498.00000	94.50209
2500.00000	88.88382
2502.00000	79.51735
2504.00000	85.77824
2506.00000	98.95639
2508.00000	100.02383
2510.00000	90.85995
2512.00000	100.68281
2514.00000	105.28454
2516.00000	33.56685
2518.00000	58.78004
2520.00000	119.09858
2522.00000	94.95054
2524.00000	49.67861
2526.00000	96.18912
2528.00000	120.84588
2530.00000	83.23128
2532.00000	81.00569
2534.00000	117.06252
2536.00000	111.91714
2538.00000	72.50101
2540.00000	65.76732
2542.00000	94.82265
2544.00000	70.38624
2546.00000	32.78227
2548.00000	61.84338
2550.00000	128.16840
2552.00000	94.60148
2554.00000	56.62884
2556.00000	79.08358
2558.00000	92.70962
2560.00000	52.93979
2562.00000	68.31277
2564.00000	89.42988
2566.00000	41.62786
2568.00000	20.41417
2570.00000	51.08511
2572.00000	67.49882
2574.00000	44.87124
2576.00000	43.23773
2578.00000	82.54857
2580.00000	87.48587
2582.00000	64.74456
2584.00000	77.38236
2586.00000	87.44183
2588.00000	43.75903
2590.00000	30.68701
2592.00000	87.05049
2594.00000	92.06196
2596.00000	75.36621
2598.00000	91.96637
2600.00000	108.87294
2602.00000	68.10213
2604.00000	65.27766
2606.00000	112.17184
2608.00000	121.87695
2610.00000	64.19941
2612.00000	66.63488
2614.00000	92.88435
2616.00000	74.49172
2618.00000	42.88495
2620.00000	78.97347
2622.00000	58.36597
2624.00000	57.84776
2626.00000	118.01594
2628.00000	131.47633
2630.00000	71.50599
2632.00000	73.71110
2634.00000	106.17997
2636.00000	71.78569
2638.00000	66.93703
2640.00000	113.27356
2642.00000	99.82706
2644.00000	26.48713
2646.00000	55.93209
2648.00000	114.21381
2650.00000	84.66277
2652.00000	42.94866
2654.00000	110.64466
2656.00000	110.95964
2658.00000	61.56693
2660.00000	55.65315
2662.00000	86.23841
2664.00000	41.87833
2666.00000	16.78532
2668.00000	45.36803
2670.00000	64.44890
2672.00000	38.70622
2674.00000	84.49885
2676.00000	88.60246
2678.00000	49.52890
2680.00000	89.92923
2682.00000	120.20097
2684.00000	76.69280
2686.00000	54.81466
2688.00000	99.54510
2690.00000	69.39590
2692.00000	62.18469
2694.00000	110.70428
2696.00000	127.17236
2698.00000	50.00137
2700.00000	31.67067
2702.00000	104.88711
2704.00000	126.03481
2706.00000	39.88704
2708.00000	87.27143
2710.00000	75.53625
2712.00000	45.25163
2714.00000	113.03873
2716.00000	118.28778
2718.00000	38.66069
2720.00000	64.67137
2722.00000	163.41136
2724.00000	94.81778
2726.00000	46.10273
2728.00000	109.41958
2730.00000	136.74210
2732.00000	44.86017
2734.00000	93.41608
2736.00000	156.56180
2738.00000	105.70294
2740.00000	52.62725
2742.00000	173.75699
2744.00000	151.69534
2746.00000	87.93564
2748.00000	122.61247
2750.00000	154.41795
2752.00000	158.76602
2754.00000	161.81244
2756.00000	133.99969
2758.00000	73.38171
2760.00000	95.44625
2762.00000	116.15021
2764.00000	97.79105
2766.00000	99.79961
2768.00000	143.21140
2770.00000	56.07998
2772.00000	43.86281
2774.00000	140.62944
2776.00000	112.07963
2778.00000	62.84124
2780.00000	103.65073
2782.00000	115.83813
2784.00000	42.47874
2786.00000	120.69745
2788.00000	90.60714
2790.00000	40.00570
2792.00000	116.20195
2794.00000	153.49155
2796.00000	97.16392
2798.00000	118.26233
2800.00000	182.58998
2802.00000	107.52296
2804.00000	59.78399
2806.00000	106.57682
2808.00000	108.95332
2810.00000	48.28542
2812.00000	165.61182
2814.00000	147.21117
2816.00000	73.40234
2818.00000	95.47340
2820.00000	90.35082
2822.00000	101.64063
2824.00000	139.45920
2826.00000	141.26720
2828.00000	83.14671
2830.00000	81.30453
2832.00000	92.93499
2834.00000	108.65555
2836.00000	151.61819
2838.00000	172.29010
2840.00000	105.74210
2842.00000	115.19584
2844.00000	179.91263
2846.00000	85.11765
2848.00000	104.10685
2850.00000	126.04944
2852.00000	97.28872
2854.00000	126.51302
2856.00000	148.78256
2858.00000	128.21500
2860.00000	135.11171
2862.00000	148.00552
2864.00000	36.94528
2866.00000	99.83546
2868.00000	159.27403
2870.00000	53.37890
2872.00000	11.46607
2874.00000	167.63649
2876.00000	141.90892
2878.00000	35.97565
2880.00000	150.32959
2882.00000	91.20715
2884.00000	82.87672
2886.00000	172.63869
2888.00000	193.41190
2890.00000	125.89091
2892.00000	132.64133
2894.00000	115.92258
2896.00000	68.80088
2898.00000	133.47758
2900.00000	147.02658
2902.00000	98.50596
2904.00000	107.86571
2906.00000	170.22324
2908.00000	88.96390
2910.00000	172.31975
2912.00000	186.03299
2914.00000	47.13182
2916.00000	209.70744
2918.00000	145.99980
2920.00000	55.63699
2922.00000	113.98124
2924.00000	88.55132
2926.00000	60.74908
2928.00000	86.62943
2930.00000	152.13626
2932.00000	168.78024
2934.00000	54.11650
2936.00000	31.73038
2938.00000	117.24017
2940.00000	143.42706
2942.00000	69.16817
2944.00000	161.71939
2946.00000	183.68672
2948.00000	117.82572
2950.00000	211.51724
2952.00000	214.63161
2954.00000	203.19887
2956.00000	209.19695
2958.00000	183.22269
2960.00000	181.29474
2962.00000	210.60359
2964.00000	174.86508
2966.00000	151.86887
2968.00000	291.65344
2970.00000	190.72658
2972.00000	138.15891
2974.00000	236.34634
2976.00000	202.35741
2978.00000	132.74174
2980.00000	218.73465
2982.00000	233.04633
2984.00000	102.68491
2986.00000	280.70828
2988.00000	281.94449
2990.00000	190.58128
2992.00000	226.59932
2994.00000	233.47313
2996.00000	186.37981
2998.00000	152.65416
3000.00000	198.25854
3002.00000	257.26437
3004.00000	152.57253
3006.00000	187.48489
3008.00000	267.29144
3010.00000	189.25191
3012.00000	173.05829
3014.00000	250.37854
3016.00000	179.00163
3018.00000	95.34883
3020.00000	314.71243
3022.00000	217.15001
3024.00000	238.97694
3026.00000	374.49969
3028.00000	245.64360
3030.00000	294.50531
3032.00000	275.51880
3034.00000	250.59021
3036.00000	320.04214
3038.00000	244.83621
3040.00000	324.70740
3042.00000	333.14093
3044.00000	241.71524
3046.00000	339.76236
3048.00000	252.76543
3050.00000	188.78239
3052.00000	210.23718
3054.00000	165.37027
3056.00000	162.71992
3058.00000	187.73712
3060.00000	228.78989
3062.00000	254.57158
3064.00000	200.57359
3066.00000	137.92351
3068.00000	167.18544
3070.00000	189.13359
3072.00000	104.42964
3074.00000	224.91988
3076.00000	237.69530
3078.00000	153.67609
3080.00000	201.73351
3082.00000	208.58080
3084.00000	316.24445
3086.00000	269.19211
3088.00000	122.97281
3090.00000	358.92703
3092.00000	270.36169
3094.00000	256.45361
3096.00000	355.92319
3098.00000	140.94789
3100.00000	300.14734
3102.00000	274.39545
3104.00000	242.69250
3106.00000	479.97870
3108.00000	165.26106
3110.00000	180.32283
3112.00000	252.02196
3114.00000	103.03196
3116.00000	282.51273
3118.00000	123.88439
3120.00000	134.12308
3122.00000	325.44745
3124.00000	156.01125
3126.00000	192.97667
3128.00000	80.74894
3130.00000	53.64034
3132.00000	289.39413
3134.00000	80.07363
3136.00000	178.07635
3138.00000	244.36098
3140.00000	106.99145
3142.00000	341.82861
3144.00000	196.79826
3146.00000	130.05959
3148.00000	298.62335
3150.00000	307.27805
3152.00000	379.67804
3154.00000	232.60281
3156.00000	87.81320
3158.00000	201.05482
3160.00000	224.86070
3162.00000	300.20602
3164.00000	228.02034
3166.00000	40.46103
3168.00000	104.58851
3170.00000	159.03944
3172.00000	256.29584
3174.00000	377.24518
3176.00000	338.34543
3178.00000	169.92487
3180.00000	257.01373
3182.00000	361.21698
3184.00000	255.36435
3186.00000	302.08084
3188.00000	263.89554
3190.00000	353.44501
3192.00000	389.44394
3194.00000	23.34198
3196.00000	260.77332
3198.00000	377.47284
3200.00000	267.21765
