127.3629	0.00E+00
129.7201	27.8811
132.0763	12.97778
134.4317	1.616638
136.7862	4.743713
139.1398	14.27118
141.4925	29.38953
143.8443	138.2004
146.1953	173.7344
148.5454	311.9654
150.8946	414.7587
153.2429	512.1298
155.5903	669.1714
157.9368	928.9807
160.2825	1164.649
162.6273	1441.206
164.9711	1737.878
167.3142	1904.35
169.6563	2018.069
171.9975	1901.627
174.3379	1664.303
176.6774	1244.065
179.016	993.476
181.3538	636.9408
183.6906	424.6098
186.0266	299.3951
188.3617	176.8755
190.696	80.39844
193.0293	74.50742
195.3618	49.74384
197.6934	18.55707
200.0241	37.17972
202.354	25.73343
204.6829	21.04401
207.011	64.60873
209.3383	79.03006
211.6646	88.97025
213.9901	142.6018
216.3147	106.2268
218.6384	86.87241
220.9613	82.08923
223.2833	2.562042
225.6044	66.1951
227.9247	37.35056
230.244	92.55875
232.5626	14.07962
234.8802	104.1375
237.197	49.43716
239.5129	97.15985
241.8279	146.8692
244.1421	165.5395
246.4554	258.9807
248.7678	279.748
251.0794	347.5123
253.3901	443.1412
255.6999	499.5687
258.0089	591.0207
260.317	665.5195
262.6242	830.6763
264.9306	1145.182
267.2361	1328.511
269.5407	1517.569
271.8445	1786.929
274.1474	2119.298
276.4494	2448.617
278.7506	2748.276
281.051	3111.102
283.3504	3427.445
285.649	3617.354
287.9467	3751.975
290.2436	3645.176
292.5396	3500.353
294.8348	3133.501
297.1291	2649.137
299.4225	2175.334
301.7151	1709.344
304.0068	1326.94
306.2977	1068.057
308.5877	791.1494
310.8769	692.5217
313.1652	532.679
315.4526	484.057
317.7392	486.5098
320.0249	430.3308
322.3098	364.801
324.5938	332.6906
326.8769	238.7229
329.1592	285.3282
331.4407	306.8094
333.7213	290.5459
336.001	246.6518
338.2799	209.1005
340.5579	148.8498
342.8351	118.1209
345.1114	53.63045
347.3869	44.23304
349.6615	73.80068
351.9353	1.951408
354.2082	30.12389
356.4803	5.110832
358.7515	14.08472
361.0219	9.896637
363.2914	13.96782
365.5601	23.58101
367.8279	36.5316
370.0949	97.93441
372.361	28.58978
374.6263	24.11715
376.8907	8.971416
379.1543	26.64195
381.4171	41.5341
383.679	68.65696
385.94	54.37609
388.2002	38.67982
390.4596	84.32107
392.7181	92.60067
394.9757	42.82456
397.2326	4.901413
399.4886	3.384716
401.7437	72.89838
403.998	51.56242
406.2515	77.15968
408.5041	99.30417
410.7558	20.82877
413.0068	61.21386
415.2569	54.67952
417.5061	84.92236
419.7545	113.3695
422.0021	95.27477
424.2488	40.47729
426.4947	26.12679
428.7397	65.68519
430.9839	58.72616
433.2273	21.26785
435.4698	56.60708
437.7115	21.37978
439.9524	103.1595
442.1924	51.96449
444.4316	47.3628
446.67	42.25326
448.9075	70.15194
451.1442	54.71246
453.38	69.82911
455.615	109.56
457.8492	44.3381
460.0826	15.23696
462.3151	44.09077
464.5467	70.07526
466.7776	60.59781
469.0076	67.19278
471.2368	73.44328
473.4651	16.73983
475.6926	78.90475
477.9193	81.41143
480.1451	83.03158
482.3701	100.8433
484.5944	102.8913
486.8177	69.30503
489.0402	63.80347
491.2619	35.39678
493.4828	89.77773
495.7029	92.6871
497.9221	190.2111
500.1404	197.8121
502.358	161.7618
504.5747	166.3911
506.7906	200.0517
509.0057	201.3216
511.22	184.2575
513.4334	269.224
515.646	272.7538
517.8578	275.9804
520.0687	188.0441
522.2789	154.0542
524.4882	134.5354
526.6967	83.5451
528.9043	121.5218
531.1111	125.9664
533.3171	53.7073
535.5223	32.79851
537.7267	143.08
539.9303	139.41
542.133	105.3976
544.3349	79.02294
546.5359	70.79341
548.7363	112.3218
550.9357	78.02826
553.1343	63.389
555.3321	110.1842
557.5291	112.7878
559.7253	86.3651
561.9206	110.1905
564.1151	104.6314
566.3088	143.8512
568.5018	94.93006
570.6938	101.9519
572.8851	81.90446
575.0756	103.2978
577.2652	83.89346
579.454	79.60924
581.642	117.1644
583.8292	95.60353
586.0156	114.5929
588.2011	96.45284
590.3859	75.19874
592.5698	110.4512
594.7529	136.701
596.9352	91.83475
599.1167	111.2704
601.2974	81.80996
603.4772	118.8824
605.6562	117.054
607.8345	143.5672
610.012	98.43375
612.1886	125.8069
614.3644	130.7806
616.5394	142.8463
618.7136	141.8953
620.887	84.7249
623.0595	107.7131
625.2313	76.3047
627.4023	76.01765
629.5724	120.1011
631.7418	94.17525
633.9103	50.526
636.078	139.4827
638.2449	103.0445
640.4111	92.08364
642.5764	83.23945
644.7408	122.746
646.9045	82.20311
649.0674	64.68716
651.2296	52.82998
653.3909	6.052599
655.5513	111.8786
657.711	94.05064
659.8699	80.5079
662.028	78.67752
664.1852	115.3182
666.3417	126.6096
668.4974	71.10638
670.6522	117.7045
672.8063	82.93664
674.9595	87.15251
677.112	113.0989
679.2637	105.4463
681.4146	99.68062
683.5646	71.65513
685.7139	90.11729
687.8623	102.0788
690.01	105.2096
692.1569	78.65123
694.3029	137.5244
696.4482	158.5216
698.5927	178.5795
700.7363	232.534
702.8792	222.9524
705.0213	299.5796
707.1626	289.6658
709.3031	435.2753
711.4428	530.986
713.5817	571.5962
715.7198	770.0773
717.8571	868.3352
719.9937	805.9396
722.1294	790.6271
724.2643	695.9043
726.3984	588.819
728.5318	492.7075
730.6644	331.0202
732.7961	262.3181
734.9271	261.9453
737.0573	137.2876
739.1866	204.4383
741.3152	188.7865
743.4431	155.6164
745.5701	59.0696
747.6963	69.90902
749.8217	101.3871
751.9464	92.18005
754.0703	90.8593
756.1933	47.60798
758.3156	23.85707
760.4371	9.491324
762.5578	39.59435
764.6777	63.28414
766.7968	83.35563
768.9152	68.99818
771.0327	53.87809
773.1495	34.45236
775.2655	38.71913
777.3807	113.8353
779.4951	26.71093
781.6088	45.45921
783.7216	45.45912
785.8337	3.015036
787.9449	45.61007
790.0555	29.63764
792.1652	63.06018
794.2741	71.02399
796.3823	38.18182
798.4896	2.276361
800.5962	37.11377
802.702	42.4421
804.807	74.97044
806.9113	23.12027
809.0147	17.55843
811.1174	59.2446
813.2193	44.97426
815.3204	73.57351
817.4208	63.96499
819.5203	60.49486
821.6191	81.69306
823.7171	9.56806
825.8143	34.174
827.9108	58.29233
830.0065	58.1237
832.1014	54.57132
834.1955	62.54276
836.2888	57.95669
838.3814	8.923203
840.4732	22.92172
842.5642	20.10152
844.6544	53.75864
846.7439	30.24528
848.8326	10.65264
850.9205	35.89812
853.0076	2.526482
855.094	53.27802
857.1796	59.51735
859.2644	69.79675
861.3484	93.39378
863.4318	23.48579
865.5142	65.22693
867.596	55.9125
869.6769	152.947
871.7571	109.5339
873.8365	27.60944
875.9152	56.83646
877.993	38.28283
880.0702	39.5384
882.1465	20.68159
884.2221	70.5923
886.2969	7.474968
888.3709	52.3016
890.4442	22.63416
892.5167	10.38163
894.5884	49.11087
896.6594	41.24988
898.7296	44.8956
900.799	77.14455
902.8676	43.44571
904.9355	54.5175
907.0026	13.03549
909.069	50.5568
911.1346	32.09903
913.1994	32.92619
915.2635	61.88214
917.3268	56.44797
919.3893	1.07029
921.4511	48.81721
923.5121	20.21774
925.5723	74.15337
927.6318	13.25763
929.6906	3.07317
931.7485	7.764919
933.8057	41.89454
935.8621	84.71918
937.9178	67.85336
939.9727	56.8617
942.0269	84.42616
944.0803	12.04663
946.1329	98.08445
948.1848	71.56986
950.2359	39.83125
952.2863	55.29609
954.3358	100.6063
956.3846	72.5796
958.4327	29.35212
960.48	33.54816
962.5266	65.15142
964.5724	28.75786
966.6174	28.95876
968.6617	60.95881
970.7053	12.66434
972.748	53.65354
974.7901	24.408
976.8314	17.6209
978.8718	80.4636
980.9116	50.86145
982.9506	9.774372
984.9888	46.85101
987.0263	31.09857
989.063	92.67762
991.0991	79.03331
993.1343	114.739
995.1688	57.81897
997.2025	79.80576
999.2355	69.41048
1001.268	34.96685
1003.299	106.2679
1005.33	57.74165
1007.36	33.68053
1009.389	96.36314
1011.417	96.64713
1013.445	135.9357
1015.472	106.2667
1017.498	142.1752
1019.524	156.2629
1021.549	52.46806
1023.573	124.3201
1025.596	143.9995
1027.618	137.7609
1029.64	180.3225
1031.661	180.8145
1033.681	177.7282
1035.701	184.5096
1037.719	213.6219
1039.737	203.4317
1041.755	236.1054
1043.771	139.9677
1045.787	235.6454
1047.802	233.043
1049.816	277.8898
1051.83	302.7601
1053.842	306.3789
1055.854	304.145
1057.866	375.4042
1059.876	366.7215
1061.886	514.2461
1063.895	547.6798
1065.903	573.0401
1067.911	669.6296
1069.918	801.0145
1071.924	1014.021
1073.929	1260.364
1075.934	1661.061
1077.938	2211.074
1079.941	3128.043
1081.943	4305.957
1083.945	5773.473
1085.946	7449.272
1087.946	8837.303
1089.945	9619.34
1091.944	9606.5
1093.942	8660.351
1095.939	7050.798
1097.936	5130.954
1099.931	3406.464
1101.926	2136.111
1103.921	1350.287
1105.914	952.6926
1107.907	633.1895
1109.899	472.2166
1111.89	359.3506
1113.881	344.3069
1115.871	277.934
1117.86	255.3703
1119.848	209.7359
1121.836	216.6713
1123.823	145.5722
1125.809	173.8651
1127.794	85.28826
1129.779	174.7864
1131.763	156.4056
1133.746	124.8855
1135.729	135.3049
1137.71	144.9365
1139.691	79.02455
1141.672	113.0214
1143.651	110.5037
1145.63	130.1968
1147.608	107.6086
1149.586	122.9962
1151.562	43.42874
1153.538	102.7073
1155.513	50.34998
1157.488	91.45695
1159.462	106.2329
1161.435	84.26684
1163.407	48.60078
1165.378	25.1967
1167.349	62.65068
1169.319	19.57772
1171.289	96.74951
1173.257	98.11829
1175.225	93.98962
1177.193	69.82729
1179.159	62.07645
1181.125	78.75659
1183.09	113.5895
1185.054	8.978111
1187.018	45.62561
1188.98	33.53506
1190.943	53.55111
1192.904	77.11268
1194.865	47.10141
1196.824	63.51662
1198.784	9.792297
1200.742	62.85838
1202.7	93.80451
1204.657	62.89067
1206.613	7.770576
1208.569	72.67445
1210.524	47.55461
1212.478	89.11846
1214.431	55.30516
1216.384	18.24477
1218.336	52.59621
1220.287	75.26291
1222.238	35.80938
1224.188	36.29199
1226.137	73.63705
1228.085	69.08926
1230.033	87.88175
1231.98	34.76872
1233.926	88.51908
1235.872	39.69139
1237.816	38.46302
1239.76	5.042702
1241.704	2.883202
1243.646	25.23696
1245.589	35.17741
1247.53	106.2168
1249.47	51.96454
1251.41	61.46035
1253.349	54.35215
1255.287	27.37763
1257.225	5.785023
1259.162	62.09871
1261.098	11.94226
1263.034	45.72261
1264.968	14.2059
1266.902	39.80766
1268.836	28.69242
1270.769	63.32778
1272.7	36.36634
1274.632	22.91334
1276.562	88.57486
1278.492	73.98866
1280.421	52.51301
1282.349	40.6853
1284.277	102.9606
1286.204	60.06154
1288.13	48.20395
1290.056	90.76722
1291.981	4.311699
1293.905	70.64326
1295.828	22.69669
1297.751	74.44054
1299.673	62.89758
1301.594	115.5203
1303.515	65.1441
1305.434	79.38412
1307.354	75.32249
1309.272	112.6154
1311.19	83.9893
1313.107	19.36722
1315.023	53.6427
1316.939	109.6955
1318.854	128.6158
1320.768	104.2696
1322.681	110.2704
1324.594	115.0675
1326.506	81.38433
1328.417	146.9821
1330.328	113.4568
1332.238	67.53936
1334.147	74.59347
1336.056	36.6115
1337.964	127.899
1339.871	8.813942
1341.777	63.616
1343.683	55.02293
1345.588	44.71705
1347.493	96.03248
1349.396	54.7078
1351.299	37.47825
1353.201	83.90104
1355.103	69.71562
1357.004	61.53425
1358.904	121.6904
1360.803	95.89495
1362.702	115.0012
1364.6	59.48444
1366.497	96.24893
1368.394	17.63638
1370.29	115.5311
1372.185	53.29808
1374.08	82.24326
1375.974	83.62238
1377.867	77.14576
1379.759	116.8663
1381.651	108.0186
1383.542	18.60208
1385.432	91.26843
1387.322	74.383
1389.211	53.78062
1391.099	104.5882
1392.987	61.74538
1394.874	17.90191
1396.76	104.4073
1398.645	101.9671
1400.53	70.47151
1402.414	31.6268
1404.297	95.74322
1406.18	91.0239
1408.062	60.07326
1409.943	102.8242
1411.824	80.6925
1413.704	115.1977
1415.583	89.4339
1417.462	124.7582
1419.34	85.93324
1421.217	194.7393
1423.093	169.7092
1424.969	108.0638
1426.844	248.0955
1428.719	204.5848
1430.592	212.4994
1432.465	188.618
1434.338	246.7516
1436.209	311.062
1438.08	173.7646
1439.95	246.3404
1441.82	283.5425
1443.689	188.0099
1445.557	241.2756
1447.425	185.0052
1449.291	125.076
1451.157	127.4733
1453.023	156.0458
1454.888	93.94391
1456.752	141.9823
1458.615	72.09126
1460.478	90.36004
1462.34	121.3162
1464.201	128.1223
1466.062	90.79877
1467.922	118.3817
1469.781	105.0135
1471.639	115.8197
1473.497	153.4714
1475.354	123.6581
1477.211	105.2776
1479.067	49.26097
1480.922	131.2235
1482.776	19.85038
1484.63	97.1801
1486.483	109.469
1488.336	126.1983
1490.188	38.23631
1492.039	87.11259
1493.889	124.7414
1495.739	40.00513
1497.588	54.50015
1499.436	112.1344
1501.284	98.78612
1503.131	82.61536
1504.977	27.88445
1506.823	35.57943
1508.667	79.16337
1510.512	65.27994
1512.355	125.1581
1514.198	71.69349
1516.04	74.11063
1517.882	84.76273
1519.723	71.65167
1521.563	68.0867
1523.402	119.4846
1525.241	48.21311
1527.079	77.36545
1528.917	82.99088
1530.754	74.82996
1532.59	115.7858
1534.425	94.05325
1536.26	61.5955
1538.094	55.78103
1539.927	58.63014
1541.76	31.97125
1543.592	81.03442
1545.424	73.93028
1547.254	28.90045
1549.084	73.57738
1550.914	69.90406
1552.742	127.9054
1554.57	46.11961
1556.398	81.35287
1558.224	56.45433
1560.05	122.1629
1561.876	125.9855
1563.7	110.8505
1565.524	89.54934
1567.348	60.69415
1569.17	129.8783
1570.992	109.2205
1572.814	104.2899
1574.634	101.1825
1576.454	67.20212
1578.273	157.5285
1580.092	79.47176
1581.91	144.1383
1583.727	143.3326
1585.544	97.18132
1587.36	103.9437
1589.175	0.448654
1590.99	69.23854
1592.804	87.07654
1594.617	45.92179
1596.429	26.47431
1598.241	72.61677
1600.053	76.59048
1601.863	67.37533
1603.673	19.40218
1605.482	172.987
1607.291	89.49409
1609.099	68.33816
1610.906	68.58864
1612.713	117.5812
1614.519	40.02078
1616.324	5.836655
1618.129	100.7169
1619.932	81.95888
1621.736	10.35197
1623.538	76.41855
1625.34	93.43057
1627.141	79.25491
1628.942	28.19333
1630.742	94.27953
1632.541	89.66895
1634.34	74.43042
1636.138	107.5991
1637.935	29.23446
1639.732	46.02336
1641.528	60.44028
1643.323	59.11149
1645.118	95.27516
1646.912	41.81929
1648.705	98.71277
1650.498	27.34165
1652.29	12.98087
1654.081	49.76417
1655.872	75.90144
1657.662	108.2192
1659.451	89.05602
1661.24	69.73785
1663.028	106.9624
1664.815	8.940037
1666.602	75.86829
1668.388	57.54261
1670.174	111.6556
1671.958	82.4873
1673.743	90.22986
1675.526	78.402
1677.309	103.4205
1679.091	92.373
1680.872	101.3665
1682.653	154.6799
1684.433	97.42199
1686.213	13.6999
1687.992	73.79927
1689.77	80.03359
1691.547	102.3974
1693.324	124.97
1695.101	71.5611
1696.876	66.22499
1698.651	110.0243
1700.425	126.6745
1702.199	78.30462
1703.972	111.277
1705.744	74.36624
1707.516	50.89165
1709.287	144.2753
1711.057	109.2961
1712.827	112.8956
1714.596	118.8301
1716.365	76.0769
1718.132	68.92562
1719.899	46.29894
1721.666	61.44187
1723.432	133.3744
1725.197	95.04027
1726.961	160.3682
1728.725	134.6177
1730.488	127.7125
1732.251	161.1917
1734.013	174.1826
1735.774	200.0101
1737.535	256.4612
1739.295	291.2999
1741.054	249.0087
1742.813	279.1534
1744.571	267.1719
1746.328	183.3712
1748.085	322.3338
1749.841	221.6536
1751.596	239.6586
1753.351	208.919
1755.105	199.0944
1756.859	171.701
1758.611	244.5078
1760.364	166.3353
1762.115	107.8008
1763.866	71.59145
1765.616	102.9499
1767.366	94.00646
1769.115	114.6896
1770.863	88.25462
1772.611	76.24014
1774.358	137.9639
1776.104	105.6015
1777.85	36.48691
1779.595	43.56819
1781.34	30.3151
1783.083	26.41372
1784.827	112.7386
1786.569	81.23787
1788.311	26.84677
1790.052	97.01066
1791.793	62.88215
1793.533	8.652088
1795.272	88.44309
1797.011	188.093
1798.749	8.28006
1800.486	70.12505
1802.223	79.31847
1803.959	92.80778
1805.695	123.2737
1807.43	103.3618
1809.164	150.4621
1810.897	73.2405
1812.63	91.35403
1814.363	56.06459
1816.094	0.989891
1817.825	95.79518
1819.556	47.57687
1821.285	114.3444
1823.014	71.13615
1824.743	70.73798
1826.471	111.3773
1828.198	35.84881
1829.924	85.18063
1831.65	137.9227
1833.376	35.61373
1835.1	113.5303
1836.824	70.20133
1838.548	3.788956
1840.27	155.9302
1841.993	92.27481
1843.714	70.94332
1845.435	59.16348
1847.155	85.58897
1848.875	62.15092
1850.594	63.72491
1852.312	67.81492
1854.03	76.91891
1855.747	82.61717
1857.463	145.1117
1859.179	52.09893
1860.894	94.9353
1862.608	22.8262
1864.322	71.05713
1866.036	86.37167
1867.748	104.4597
1869.46	62.39582
1871.171	94.94477
1872.882	68.98047
1874.592	87.06681
1876.302	90.67121
1878.01	42.82693
1879.719	83.12383
1881.426	101.1123
1883.133	140.1306
1884.839	112.8048
1886.545	26.17968
1888.25	108.9002
1889.955	101.6568
1891.658	97.30004
1893.362	26.03854
1895.064	93.9857
1896.766	146.3265
1898.467	97.12134
1900.168	68.55521
1901.868	107.3615
1903.568	97.9175
1905.266	44.83008
1906.964	51.09172
1908.662	123.2077
1910.359	93.21938
1912.055	63.77325
1913.751	64.47793
1915.446	64.66374
1917.14	32.9768
1918.834	4.193146
1920.527	48.44484
1922.22	50.81161
1923.911	0.375523
1925.603	6.956963
1927.293	87.15167
1928.983	118.5686
1930.673	124.4337
1932.362	66.25571
1934.05	93.855
1935.737	118.0373
1937.424	28.58572
1939.111	79.57191
1940.796	138.666
1942.481	96.73498
1944.166	82.06525
1945.849	38.61635
1947.533	112.2134
1949.215	127.4585
1950.897	120.044
1952.578	69.36035
1954.259	77.16051
1955.939	121.4772
1957.619	125.7212
1959.298	83.58083
1960.976	134.613
1962.653	95.90925
1964.33	47.44305
1966.007	155.2955
1967.682	109.8587
1969.358	73.86021
1971.032	76.49092
1972.706	106.8706
1974.379	158.2606
1976.052	154.3036
1977.724	69.70612
1979.396	27.39501
1981.066	109.2817
1982.737	56.24932
1984.406	87.46671
1986.075	61.30596
1987.743	85.95632
1989.411	71.66469
1991.078	110.344
1992.745	100.2664
1994.411	47.89651
1996.076	60.11261
1997.741	28.24136
1999.405	84.5085
2001.068	52.83826
2002.731	153.0445
2004.393	128.5129
2006.055	46.86685
2007.716	382.8839
2009.376	186.0275
2011.036	68.37867
2012.695	115.3267
2014.353	94.32995
2016.011	31.62556
2017.669	104.9485
2019.325	77.39021
2020.981	138.3757
2022.637	132.6666
2024.292	75.49045
2025.946	42.64663
2027.6	66.8688
2029.253	183.7074
2030.905	36.70423
2032.557	114.9736
2034.208	153.1641
2035.859	32.85355
2037.509	129.127
2039.158	37.6113
2040.807	56.95574
2042.455	76.89871
2044.102	140.4857
2045.749	40.02684
2047.396	124.4945
2049.041	237.7182
2050.687	33.05755
2052.331	140.3496
2053.975	132.6725
2055.618	28.47825
2057.261	179.21
2058.903	107.8959
2060.544	63.88737
2062.185	89.17556
2063.825	88.22817
2065.465	45.44041
2067.104	86.78964
2068.743	95.78512
2070.38	66.25994
2072.018	93.72191
2073.654	127.1363
2075.29	10.37407
2076.926	113.9833
2078.561	11.07868
2080.195	6.276825
2081.828	120.1691
2083.461	36.03122
2085.094	87.83649
2086.726	36.13114
2088.357	36.7657
2089.987	56.30425
2091.617	84.95643
2093.247	74.92143
2094.875	79.07522
2096.504	72.16251
2098.131	73.07385
2099.758	76.27011
2101.385	122.0266
2103.01	126.9558
2104.635	103.7766
2106.26	107.8603
2107.884	109.5643
2109.507	57.22902
2111.13	164.7748
2112.752	120.5455
2114.374	83.27602
2115.995	24.58545
2117.615	2.406933
2119.235	133.0587
2120.854	122.2052
2122.473	125.6996
2124.091	108.0542
2125.708	114.2869
2127.325	109.655
2128.941	94.59819
2130.557	118.9297
2132.172	190.73
2133.786	99.1214
2135.4	110.7705
2137.013	139.5956
2138.626	149.2089
2140.238	56.14901
2141.849	155.6175
2143.46	29.57759
2145.07	170.3621
2146.68	144.8895
2148.289	74.39639
2149.897	99.37715
2151.505	170.8831
2153.113	38.26297
2154.719	73.6818
2156.325	66.57656
2157.931	132.1651
2159.535	93.54162
2161.14	139.672
2162.743	93.24117
2164.346	86.03504
2165.949	193.8769
2167.551	96.96878
2169.152	121.6108
2170.753	134.8559
2172.353	129.1974
2173.953	82.55558
2175.552	108.9665
2177.15	176.4881
2178.748	48.96023
2180.345	129.9356
2181.941	40.46294
2183.537	127.391
2185.133	68.10429
2186.728	9.52343
2188.322	146.8703
2189.916	72.44872
2191.509	128.8849
2193.101	120.5687
2194.693	123.2024
2196.284	158.818
2197.875	112.7556
2199.465	82.23921
2201.054	65.7226
2202.643	7.891502
2204.232	91.37827
2205.819	31.88512
2207.406	99.20554
2208.993	41.74408
2210.579	106.0505
2212.165	39.63461
2213.749	89.01939
2215.333	75.90921
2216.917	17.17458
2218.5	89.44255
2220.083	67.25986
2221.665	116.7237
2223.246	66.27717
2224.826	131.6228
2226.407	79.71529
2227.986	90.93203
2229.565	118.8735
2231.144	61.61423
2232.721	158.1376
2234.299	73.09005
2235.875	61.50759
2237.451	94.97729
2239.027	86.40392
2240.601	106.3302
2242.176	97.41232
2243.749	61.83905
2245.323	105.5372
2246.895	36.50166
2248.467	102.4524
2250.038	119.3125
2251.609	152.0776
2253.179	36.87616
2254.749	45.6705
2256.318	128.3858
2257.886	149.5607
2259.454	119.4617
2261.021	60.92445
2262.588	81.04523
2264.154	70.91411
2265.72	134.2039
2267.285	112.0838
2268.849	167.4032
2270.413	88.74152
2271.976	48.1143
2273.539	166.1941
2275.101	111.9997
2276.663	109.9672
2278.223	57.63165
2279.784	32.64222
2281.344	143.9914
2282.903	21.57656
2284.461	119.3938
2286.019	119.9033
2287.577	140.3832
2289.134	58.29492
2290.69	146.3177
2292.246	67.00544
2293.801	22.42849
2295.355	101.0615
2296.909	131.9919
2298.463	122.1365
2300.016	81.01315
2301.568	117.8062
2303.119	130.2
2304.671	102.2874
2306.221	101.1625
2307.771	107.5865
2309.321	79.15744
2310.869	81.047
2312.417	104.9389
2313.965	128.6949
2315.512	124.1729
2317.059	115.7596
2318.605	127.9978
2320.15	98.77531
2321.695	117.5996
2323.239	128.7106
2324.783	90.34032
2326.326	82.34165
2327.868	127.0285
2329.41	113.9855
2330.951	54.44041
2332.492	1.187675
2334.032	108.2011
2335.572	139.4802
2337.111	28.05301
2338.65	98.5321
2340.188	82.94645
2341.725	52.40215
2343.262	80.90757
2344.798	165.1282
2346.333	82.71763
2347.869	47.01246
2349.403	67.03261
2350.937	107.8728
2352.47	15.30791
2354.003	167.353
2355.535	108.0951
2357.067	136.1181
2358.598	89.736
2360.129	133.387
2361.658	153.7329
2363.188	1.981453
2364.717	103.3323
2366.245	54.8707
2367.773	28.96806
2369.3	86.77864
2370.826	102.5875
2372.352	111.1346
2373.878	85.03057
2375.403	95.2663
2376.927	152.9629
2378.45	88.00704
2379.974	90.59802
2381.496	124.2416
2383.018	31.1506
2384.54	78.06332
2386.061	13.78828
2387.581	62.54979
2389.101	105.1713
2390.62	77.65311
2392.138	69.34641
2393.656	36.85468
2395.174	8.903992
2396.691	95.68533
2398.207	110.6505
2399.723	104.8594
2401.238	128.0557
2402.753	97.45587
2404.267	109.6493
2405.781	86.82986
2407.293	126.9522
2408.806	16.93695
2410.318	117.141
2411.829	107.1437
2413.34	52.56451
2414.85	34.44549
2416.359	108.2495
2417.868	44.69342
2419.377	169.1236
2420.885	76.64326
2422.392	50.65182
2423.899	114.3647
2425.405	110.2738
2426.911	122.0924
2428.416	119.5051
2429.921	164.1184
2431.425	107.0983
2432.928	96.98111
2434.431	120.9235
2435.933	111.3113
2437.435	17.07049
2438.936	17.41375
2440.437	51.52129
2441.937	14.37165
2443.437	128.6268
2444.935	134.9424
2446.434	66.05504
2447.932	21.18997
2449.429	117.5935
2450.926	157.1772
2452.422	142.3143
2453.917	93.87011
2455.413	37.62373
2456.907	80.73285
2458.401	63.5713
2459.894	209.8188
2461.387	115.9423
2462.879	145.4442
2464.371	126.2738
2465.862	39.23359
2467.353	105.3625
2468.843	93.93868
2470.333	59.00168
2471.822	79.10603
2473.31	54.0594
2474.798	2.500992
2476.285	158.7217
2477.772	3.309471
2479.258	116.9858
2480.743	131.9722
2482.229	37.72359
2483.713	109.1689
2485.197	72.41248
2486.68	97.24319
2488.163	91.30865
2489.646	127.3209
2491.127	4.025192
2492.608	69.15321
2494.089	91.04183
2495.569	111.7097
2497.049	113.4643
2498.528	110.3863
2500.006	183.7222
2501.484	135.0029
2502.961	57.14249
2504.438	91.24908
2505.914	86.38248
2507.39	97.92531
2508.865	157.5091
2510.34	41.6739
2511.814	97.49766
2513.287	110.5949
2514.76	52.05527
2516.233	57.77666
2517.704	99.38385
2519.176	49.61206
2520.646	56.23965
2522.117	67.4829
2523.586	89.53049
2525.055	140.8475
2526.524	91.86855
2527.992	20.16824
2529.459	184.7111
2530.926	110.9458
2532.393	17.7969
2533.858	120.6706
2535.323	90.6115
2536.788	105.2197
2538.252	155.5314
2539.716	134.2086
2541.179	183.8922
2542.642	154.4112
2544.104	52.94733
2545.565	84.47695
2547.026	52.29662
2548.486	70.98512
2549.946	77.18739
2551.405	145.121
2552.864	98.63317
2554.322	160.547
2555.78	103.704
2557.237	121.4071
2558.693	173.235
2560.149	134.9964
2561.605	170.3583
2563.06	149.0934
2564.514	188.7522
2565.968	186.0864
2567.421	124.169
2568.874	144.2696
2570.326	62.36926
2571.777	157.9599
2573.229	106.3569
2574.679	147.2263
2576.129	112.2439
2577.578	86.86846
2579.027	45.32294
2580.476	199.4656
2581.924	85.2154
2583.371	155.4277
2584.818	102.1788
2586.264	170.3063
2587.709	147.8575
2589.155	161.6251
2590.599	30.70407
2592.043	40.70111
2593.487	83.55255
2594.93	112.9267
2596.372	80.43729
2597.814	106.8659
2599.255	72.47625
2600.696	75.69312
2602.136	191.9186
2603.576	151.1282
2605.015	240.9136
2606.454	105.101
2607.892	90.94491
2609.33	54.12939
2610.767	103.0421
2612.203	61.09435
2613.639	166.0629
2615.074	33.08932
2616.509	161.7941
2617.944	89.11335
2619.377	147.7524
2620.811	13.7536
2622.243	89.80504
2623.676	79.35476
2625.107	125.8628
2626.538	124.2479
2627.969	184.5664
2629.399	77.63917
2630.828	165.2872
2632.257	173.636
2633.686	31.94042
2635.114	84.39654
2636.541	116.9606
2637.968	82.69372
2639.394	119.8394
2640.82	124.4633
2642.245	77.0205
2643.67	64.16212
2645.094	114.7786
2646.518	140.8749
2647.941	182.8093
2649.363	104.0591
2650.785	112.1502
2652.207	60.24042
2653.628	123.3902
2655.048	167.3415
2656.468	70.05396
2657.887	13.89028
2659.306	87.5827
2660.725	128.0559
2662.142	132.0702
2663.56	116.1058
2664.976	154.5542
2666.392	131.2533
2667.808	170.3161
2669.223	71.76638
2670.638	165.0069
2672.052	18.53643
2673.465	104.6165
2674.878	43.69757
2676.291	132.26
2677.703	113.0445
2679.114	148.255
2680.525	90.19696
2681.935	108.8546
2683.345	150.8071
2684.754	55.12274
2686.163	116.2259
2687.571	145.1526
2688.979	163.6319
2690.386	75.21658
2691.793	10.86075
2693.199	101.7024
2694.604	113.0282
2696.009	148.394
2697.414	91.91234
2698.818	33.84416
2700.221	101.9746
2701.624	131.6707
2703.027	141.3201
2704.428	130.4833
2705.83	159.3006
2707.231	103.8226
2708.631	99.23898
2710.031	125.0241
2711.43	174.8618
2712.829	116.6277
2714.227	59.48129
2715.625	129.568
2717.021	160.2864
2718.418	7.901123
2719.814	107.2384
2721.21	84.13349
2722.605	151.3098
2723.999	102.8186
2725.393	163.4509
2726.787	176.4021
2728.18	77.44331
2729.572	133.4316
2730.964	196.961
2732.355	162.7951
2733.746	142.5014
2735.136	158.5144
2736.526	59.0113
2737.916	43.25508
2739.304	191.5345
2740.692	91.14354
2742.08	138.9851
2743.467	150.7903
2744.854	193.1539
2746.24	203.1851
2747.626	160.3475
2749.011	91.43381
2750.395	157.5902
2751.779	165.2233
2753.163	116.4868
2754.546	123.3761
2755.928	191.7408
2757.31	148.3106
2758.692	151.0216
2760.073	214.7014
2761.453	179.8273
2762.833	117.4883
2764.212	129.1154
2765.591	143.7258
2766.969	180.2211
2768.347	185.792
2769.725	1.153687
2771.101	186.3889
2772.478	64.90968
2773.853	101.4312
2775.228	167.7859
2776.603	111.6491
2777.977	145.929
2779.351	100.7212
2780.724	49.21929
2782.096	108.7647
2783.469	155.6246
2784.84	100.9586
2786.211	19.99046
2787.582	79.09276
2788.952	113.5715
2790.321	77.00825
2791.69	204.5516
2793.059	128.7224
2794.427	214.8112
2795.794	158.253
2797.161	59.75507
2798.527	96.24371
2799.893	44.87482
2801.259	89.23011
2802.624	154.5428
2803.988	65.96696
2805.352	190.4911
2806.715	148.9588
2808.078	72.79858
2809.44	111.4987
2810.802	22.22954
2812.163	168.4479
2813.524	173.9717
2814.884	113.8079
2816.244	28.52313
2817.603	147.2146
2818.961	176.9114
2820.32	96.60196
2821.677	132.6104
2823.034	157.0372
2824.391	104.2897
2825.747	225.5544
2827.103	135.8946
2828.458	186.6284
2829.812	141.4388
2831.166	192.2451
2832.52	63.0262
2833.873	41.73545
2835.225	228.2558
2836.577	104.85
2837.929	155.5249
2839.28	178.3857
2840.63	142.022
2841.98	155.1166
2843.33	179.9795
2844.679	133.595
2846.027	141.4178
2847.375	134.2113
2848.722	76.3326
2850.069	37.34762
2851.416	160.3298
2852.761	91.25849
2854.107	199.8591
2855.452	188.9626
2856.796	93.94051
2858.14	184.1224
2859.483	234.8611
2860.826	148.6779
2862.168	175.7761
2863.51	168.7416
2864.851	102.7311
2866.192	214.3209
2867.532	47.91819
2868.872	113.9909
2870.211	170.4915
2871.55	230.9437
2872.888	114.5909
2874.226	177.0434
2875.563	66.98945
2876.9	154.5988
2878.236	152.7539
2879.572	116.341
2880.907	194.3546
2882.242	176.0163
2883.576	119.446
2884.91	225.844
2886.243	137.3642
2887.575	168.1084
2888.908	124.8684
2890.239	120.9984
2891.571	139.4304
2892.901	109.1574
2894.231	89.48061
2895.561	228.5688
2896.89	43.52675
2898.219	193.5393
2899.547	140.7125
2900.874	221.8825
2902.201	111.612
2903.528	171.0575
2904.854	201.0813
2906.18	167.7175
2907.505	103.5201
2908.829	155.1775
2910.154	115.47
2911.477	272.0527
2912.8	106.129
2914.123	136.096
2915.445	99.56068
2916.766	192.247
2918.087	151.5777
2919.408	153.933
2920.728	123.2102
2922.048	57.74362
2923.367	118.6406
2924.685	129.9678
2926.003	142.138
2927.321	270.489
2928.638	213.6064
2929.954	137.4625
2931.271	238.1535
2932.586	77.99581
2933.901	178.8699
2935.216	136.2089
2936.53	130.4674
2937.843	90.537
2939.156	176.9206
2940.469	201.3043
2941.781	207.115
2943.092	253.4875
2944.403	88.11592
2945.714	112.955
2947.024	196.3737
2948.333	237.9173
2949.642	175.1062
2950.951	149.1213
2952.259	125.6517
2953.567	80.94257
2954.874	67.81014
2956.18	112.6896
2957.486	82.82201
2958.792	283.4077
2960.097	6.400703
2961.401	107.3988
2962.706	148.8091
2964.009	203.9394
2965.312	198.0041
2966.615	189.6241
2967.917	9.417091
2969.218	193.8533
2970.519	224.9377
2971.82	141.0219
2973.12	172.7078
2974.42	183.5988
2975.719	140.7608
2977.017	152.9275
2978.315	70.23701
2979.613	221.5868
2980.91	108.0725
2982.207	140.0521
2983.503	292.0247
2984.799	92.77451
2986.094	167.2071
2987.388	199.5368
2988.682	141.6346
2989.976	193.5348
2991.269	101.6929
2992.562	11.94906
2993.854	177.6473
2995.146	202.2766
2996.437	172.3181
2997.728	119.6219
2999.018	247.1267
3000.307	270.1913
3001.597	126.6727
3002.885	22.70689
3004.174	141.7963
3005.461	223.6897
3006.749	184.6427
3008.035	181.6737
3009.322	129.6706
3010.607	282.9961
3011.892	62.97464
3013.177	238.3956
3014.461	101.9839
3015.745	20.43774
3017.029	85.65543
3018.311	239.6759
3019.594	211.1855
3020.875	150.1143
3022.157	204.1736
3023.438	114.1515
3024.718	162.0978
3025.998	139.3653
3027.277	262.6595
3028.556	269.2325
3029.834	128.5864
3031.112	35.90161
3032.39	183.7168
3033.667	194.5092
3034.943	247.5245
3036.219	167.5901
3037.494	215.1846
3038.77	79.13437
3040.044	251.2621
3041.318	69.26768
3042.591	201.889
3043.865	179.4228
3045.137	174.0731
3046.409	251.6358
3047.68	170.096
3048.951	280.1143
3050.222	216.866
3051.492	262.8002
3052.762	229.7163
3054.031	224.6135
3055.3	153.7651
3056.568	193.8732
3057.835	136.5544
3059.102	30.71653
3060.369	242.2333
3061.635	217.6295
3062.901	223.3853
3064.166	167.4903
3065.431	264.262
3066.695	200.9685
3067.959	99.4813
3069.222	186.7632
3070.485	234.0995
3071.747	150.0671
3073.009	234.7534
3074.27	68.65958
3075.531	142.9266
3076.792	235.9119
3078.051	152.1984
3079.311	206.17
3080.57	31.16555
3081.828	194.1237
3083.086	225.4965
3084.343	176.8168
3085.6	82.91217
3086.857	131.7501
3088.113	258.3819
3089.368	234.8178
3090.623	146.9542
3091.878	343.9571
3093.132	220.2106
3094.385	149.6447
3095.639	229.8454
3096.891	269.222
3098.143	247.194
3099.395	201.6361
3100.646	195.7401
3101.897	324.9708
3103.147	179.2643
3104.397	214.4919
3105.646	162.9104
3106.895	242.6736
3108.143	233.4151
3109.391	214.3115
3110.638	213.5676
3111.885	218.7296
3113.131	275.3182
3114.377	267.5592
3115.623	262.967
3116.867	179.1863
3118.112	22.0112
3119.356	225.1012
3120.599	44.89929
3121.842	160.553
3123.085	145.6749
3124.327	202.2465
3125.568	255.5066
3126.81	211.6568
3128.05	260.3183
3129.29	116.2036
3130.53	203.1017
3131.769	93.13671
3133.008	125.3836
3134.246	168.2491
3135.484	173.1739
3136.721	136.2104
3137.958	17.80196
3139.194	299.7343
3140.43	272.5244
3141.665	209.1064
3142.9	215.0495
3144.134	164.7385
3145.368	239.0436
3146.602	177.96
3147.834	195.7914
3149.067	182.1967
3150.299	226.2762
3151.531	191.5823
3152.761	271.057
3153.992	315.5684
3155.222	205.8091
3156.452	142.3416
3157.681	258.1649
3158.909	121.258
3160.138	143.6757
3161.365	106.8322
3162.593	283.045
3163.819	156.6723
3165.046	84.55205
3166.271	178.8658
3167.497	107.7435
3168.722	335.5687
3169.946	186.5748
3171.17	226.2678
3172.393	238.95
3173.616	299.4395
3174.839	63.63568
3176.061	221.9521
3177.282	155.2929
3178.503	176.8374
3179.724	254.2444
3180.944	232.6064
3182.164	186.1208
3183.383	225.7734
3184.602	194.8276
3185.82	274.3434
3187.037	311.5819
3188.255	221.4695
3189.471	5.924515
3190.688	166.9587
3191.904	233.293
3193.119	259.9318
3194.334	90.22549
3195.548	204.4518
3196.762	40.28358
3197.976	263.6608
3199.189	312.0106
3200.402	108.931
3201.614	249.1106
3202.825	244.0818
3204.036	180.148
3205.247	9.713997
3206.457	248.7763
3207.667	314.467
3208.876	232.026
3210.085	165.5501
3211.293	28.95597
3212.501	252.4746
3213.708	46.9538
3214.916	198.3036
3216.122	236.126
3217.328	244.5841
3218.533	133.0808
3219.738	330.1
3220.943	91.90578
3222.147	191.8366
3223.351	166.0556
3224.554	191.0319
3225.756	351.3791
3226.959	7.825451
3228.16	185.7629
3229.362	185.6387
3230.562	360.6543
3231.763	165.1472
3232.963	170.5379
3234.162	242.7932
3235.361	254.8726
3236.56	280.9223
3237.758	250.7441
3238.955	234.4107
3240.152	278.1086
3241.349	52.13068
3242.545	298.315
3243.741	184.793
3244.936	242.6862
3246.131	243.4494
3247.325	137.8048
3248.519	114.6653
3249.712	205.3232
3250.905	283.1713
3252.097	208.8975
3253.289	217.1202
3254.481	156.7486
3255.672	281.035
3256.862	177.4105
3258.052	240.4819
3259.242	8.385658
3260.431	86.13107
3261.62	261.6235
3262.808	178.1367
3263.996	263.9473
3265.183	187.3991
3266.37	162.6478
3267.556	209.0571
3268.742	164.6407
3269.927	181.26
3271.113	163.4395
3272.297	74.72672
3273.481	216.485
3274.665	143.4113
3275.848	293.8774
3277.031	151.3607
3278.213	30.17936
3279.394	139.5871
3280.576	222.3379
3281.756	201.905
3282.937	192.4759
3284.117	131.7151
3285.296	91.63112
3286.475	238.0298
3287.654	91.70897
3288.832	51.71385
3290.009	215.333
3291.186	148.9301
3292.363	242.822
3293.539	101.3205
3294.715	36.58615
3295.89	163.9955
3297.065	16.33075
3298.239	225.5
3299.413	254.9844
3300.586	69.58469
3301.76	78.52324
3302.932	108.814
3304.104	146.66
3305.276	77.96485
3306.447	126.2574
3307.617	61.54284
3308.788	111.9971
3309.957	28.92993
3311.127	301.5749
3312.295	133.7792
3313.464	124.311
3314.632	35.5415
3315.799	144.4219
3316.966	113.8697
3318.133	42.72032
3319.299	200.3825
3320.464	131.2041
3321.629	175.5469
3322.794	195.7142
3323.958	114.6584
3325.122	128.4438
3326.286	93.38689
3327.448	177.2892
3328.611	92.36881
3329.773	118.5389
3330.934	153.5394
3332.095	98.91357
3333.256	254.7277
3334.416	64.05447
3335.576	212.4831
3336.735	159.0567
3337.894	165.073
3339.052	226.8893
3340.21	30.96507
3341.367	105.0469
3342.524	34.12483
3343.68	178.4903
3344.836	52.76205
3345.992	1.945641
3347.147	183.722
3348.302	99.60503
3349.456	257.688
3350.61	61.53729
3351.763	2.266563
3352.916	191.4482
3354.068	122.0116
3355.22	131.6068
3356.372	62.58278
3357.522	197.9524
3358.673	99.9817
3359.823	43.6321
3360.973	91.96931
3362.122	144.0208
3363.271	72.28879
3364.419	219.1797
3365.567	93.02555
3366.714	36.58281
3367.861	155.7962
3369.008	179.8231
3370.154	294.3214
3371.299	118.7978
3372.444	198.932
3373.589	259.8387
3374.733	107.6812
3375.877	201.5948
3377.02	222.6972
3378.163	126.2412
3379.305	218.5438
3380.447	244.2307
3381.589	234.9529
3382.73	217.0726
3383.87	187.0843
3385.01	227.9829
3386.15	139.565
3387.29	224.084
3388.428	346.959
3389.567	250.6296
3390.705	128.8678
3391.842	134.6487
3392.979	152.8746
3394.115	265.2746
3395.251	222.6653
3396.387	189.6417
3397.522	260.3332
3398.657	54.21465
3399.791	182.9261
3400.925	83.77297
3402.058	286.539
3403.191	165.5561
3404.324	104.7626
3405.456	74.05563
3406.587	182.2063
3407.719	206.9541
3408.849	277.7626
3409.979	268.6029
3411.109	251.7171
3412.239	254.6247
3413.367	220.1786
3414.496	12.70153
3415.624	244.1263
3416.751	228.496
3417.878	223.194
3419.005	39.66638
3420.131	284.3211
3421.257	183.3008
3422.382	74.99465
3423.507	114.7244
3424.632	110.4848
3425.755	174.6737
3426.879	208.2411
3428.002	142.3527
3429.125	252.8067
3430.247	305.5775
3431.369	325.5198
3432.49	133.4617
3433.611	195.5901
3434.731	91.0138
3435.851	107.0098
3436.97	181.7129
3438.089	147.9159
3439.208	299.7345
3440.326	134.3593
3441.444	147.6313
3442.561	322.1476
3443.678	154.1243
3444.794	53.31227
3445.91	156.4862
3447.026	209.5789
3448.141	200.158
3449.255	260.5476
3450.369	284.1738
3451.483	281.8515
3452.596	405.8081
3453.709	248.6919
3454.822	88.96216
3455.933	174.8611
3457.045	122.3981
3458.156	274.8192
3459.267	223.8052
3460.377	228.45
3461.486	87.09054
3462.596	180.3777
3463.704	312.3712
3464.813	13.82699
3465.921	240.4083
3467.028	194.3555
3468.135	250.0752
3469.242	318.0542
3470.348	184.8358
3471.454	219.5443
3472.559	136.7457
3473.664	278.6345
3474.768	115.0534
3475.872	175.5551
3476.976	257.863
3478.079	67.82449
3479.181	385.5755
3480.283	199.682
3481.385	219.9633
3482.486	117.653
3483.587	224.0347
3484.688	178.0918
3485.788	35.6308
3486.887	203.5108
3487.986	202.2569
3489.085	96.79455
3490.183	277.0396
3491.281	110.3661
3492.378	130.9488
3493.475	165.4206
3494.571	301.5681
3495.667	77.76873
3496.763	185.1049
3497.858	93.62804
3498.953	95.79423
3500.047	159.1117
3501.141	61.46241
3502.234	341.122
3503.327	206.7215
3504.419	175.7964
3505.511	132.7271
3506.603	201.8958
3507.694	311.6757
3508.785	170.5478
3509.875	279.8188
3510.965	246.9156
3512.054	281.9296
3513.144	259.4256
3514.232	253.9704
3515.32	129.7952
3516.408	151.8668
3517.495	297.348
3518.582	293.5505
3519.668	264.9805
3520.754	164.4962
3521.84	188.6574
3522.925	326.3924
3524.009	162.5383
3525.093	321.0193
3526.177	191.6848
3527.26	241.0001
3528.343	287.2718
3529.426	234.7695
3530.508	311.5416
3531.589	341.4011
3532.67	188.012
3533.751	267.064
3534.831	150.1954
3535.911	281.5297
3536.99	164.6777
3538.069	363.0404
3539.147	9.116615
3540.226	311.6823
3541.303	330.4324
3542.38	317.3947
3543.457	359.5145
3544.533	358.2827
3545.609	322.5275
3546.685	155.5305
3547.76	133.3053
3548.834	309.0032
3549.908	242.1563
3550.982	370.1012
3552.055	32.97129
3553.128	18.97873
3554.2	287.4469
3555.272	238.2802
3556.344	283.2578
3557.415	227.3033
3558.486	172.2027
3559.556	321.5812
3560.626	299.6912
3561.695	420.2607
3562.764	283.4909
3563.833	257.8229
3564.901	398.3423
3565.968	342.8523
3567.035	317.7884
3568.102	353.1157
3569.168	418.6664
3570.234	68.38596
3571.3	305.4028
3572.365	192.6839
3573.429	78.00523
3574.494	351.1835
3575.557	392.5742
3576.621	238.2478
3577.683	369.0275
3578.746	51.37904
3579.808	235.8101
3580.869	88.4349
3581.931	101.5893
3582.991	413.7538
3584.052	260.5901
3585.111	330.2192
3586.171	242.3244
3587.23	147.6686
3588.288	337.3601
3589.346	244.9506
3590.404	383.8464
3591.461	336.9169
3592.518	144.3766
3593.575	200.2464
3594.631	409.9943
3595.686	249.2561
3596.741	309.9161
3597.796	342.6846
3598.85	217.5054
3599.904	155.8497
3600.958	278.2466
3602.01	233.3163
3603.063	326.049
3604.115	164.1007
3605.167	219.6611
3606.218	95.27359
3607.269	323.2364
3608.319	3.726448
3609.369	345.0411
3610.419	203.8277
3611.468	344.1796
3612.516	278.3487
3613.565	433.4074
3614.613	64.39943
3615.66	322.7393
3616.707	481.0692
3617.753	381.4665
3618.8	335.3974
3619.845	246.1489
3620.89	259.8781
3621.935	149.1448
3622.98	306.5212
3624.024	272.3054
3625.067	459.5865
3626.11	210.8462
3627.153	353.5498
3628.195	351.1542
3629.237	331.2929
3630.279	325.2195
3631.319	404.3888
3632.36	60.01595
3633.4	333.2861
3634.44	316.5245
3635.479	253.2045
3636.518	435.9217
3637.556	431.7093
3638.594	65.4335
3639.632	462.1743
3640.669	380.8033
3641.706	118.6686
3642.742	101.9515
3643.778	308.6906
3644.813	262.0999
3645.848	227.2204
3646.883	421.7701
3647.917	434.1733
3648.951	291.0392
3649.984	232.5603
3651.017	513.9991
3652.05	399.7303
3653.082	297.4391
3654.113	37.54564
3655.145	482.2614
3656.175	405.2552
3657.206	271.0768
3658.236	158.2867
3659.265	178.277
3660.294	246.7655
3661.323	383.3052
3662.351	382.2319
3663.379	219.8197
3664.406	373.6279
3665.433	387.9909
3666.46	136.3469
3667.486	285.7119
3668.512	115.7937
3669.537	375.0666
3670.562	47.56858
3671.586	90.79309
3672.61	373.6443
3673.634	289.2536
3674.657	310.4542
3675.68	330.3961
3676.702	4.930481
3677.724	244.648
3678.745	295.6076
3679.766	173.6307
3680.787	224.7581
3681.807	135.2344
3682.827	452.3496
3683.846	510.6536
3684.865	198.7346
3685.884	426.6151
3686.902	383.541
3687.92	172.1003
3688.937	328.9195
3689.954	405.7056
3690.97	383.8502
3691.986	243.7229
3693.002	257.9615
3694.017	312.3855
3695.032	317.6107
3696.046	263.3947
3697.06	276.3288
3698.073	409.3685
3699.086	372.6727
3700.099	329.7766
3701.111	322.6689
3702.123	255.1835
3703.135	12.83097
3704.146	295.016
3705.156	309.1305
3706.166	259.8708
3707.176	172.0019
3708.185	325.5597
3709.194	99.25214
3710.203	323.0356
3711.211	403.0762
3712.218	192.3806
3713.225	322.8265
3714.232	54.11261
3715.239	300.9941
3716.244	154.3133
3717.25	234.493
3718.255	274.7949
3719.26	338.2028
3720.264	189.3146
3721.268	464.1608
3722.271	272.1897
3723.274	51.5184
3724.277	137.2768
3725.279	126.8361
3726.281	133.9513
3727.282	356.0108
3728.283	315.7438
3729.284	306.9064
3730.284	307.3065
3731.283	308.2543
3732.283	240.3698
3733.282	112.8476
3734.28	399.589
3735.278	386.3515
3736.276	255.3551
3737.273	107.5882
3738.27	253.6714
3739.266	216.6691
3740.262	156.7568
3741.258	320.2383
3742.253	183.1073
3743.247	370.0159
3744.242	356.0699
3745.235	167.5528
3746.229	303.2717
3747.222	318.1331
3748.215	217.9826
3749.207	248.0255
3750.198	395.9544
3751.19	184.3347
3752.181	244.5204
3753.171	272.1165
3754.162	207.5362
3755.151	420.3729
3756.141	349.9642
3757.129	334.3458
3758.118	321.4798
3759.106	339.6307
3760.094	183.5894
3761.081	198.0463
3762.068	298.2201
3763.054	243.7044
3764.04	268.6407
3765.026	109.1034
3766.011	407.7284
3766.996	162.2507
3767.98	269.5907
3768.964	234.8047
3769.947	322.375
3770.93	259.0089
3771.913	19.66351
3772.896	16.33911
3773.877	243.0561
3774.859	85.66814
3775.84	202.2339
3776.82	403.9993
3777.801	148.3136
3778.781	218.4919
3779.76	167.9393
3780.739	186.2001
3781.717	0.116455
3782.696	322.4204
3783.673	149.1787
3784.651	144.4306
3785.627	84.03056
3786.604	236.0171
3787.58	385.3915
3788.556	148.9528
3789.531	143.5867
3790.506	206.0428
3791.48	186.7776
3792.455	282.2023
3793.428	186.7679
3794.401	85.88574
3795.374	187.3321
3796.347	23.48605
3797.319	240.8738
3798.29	183.713
3799.261	267.0739
3800.232	82.82376
3801.202	440.2525
3802.172	189.5066
3803.142	299.69
3804.111	112.8608
3805.08	292.8018
3806.048	231.2856
3807.016	171.6285
3807.983	334.6317
3808.95	318.3092
3809.917	250.6444
3810.884	142.4209
3811.849	102.8087
3812.815	302.355
3813.78	10.45453
3814.744	299.4925
3815.709	297.9202
3816.672	315.4407
3817.636	258.2544
3818.599	280.9251
3819.562	236.0496
3820.524	231.3008
3821.485	0.789978
3822.447	57.33203
3823.408	354.0384
3824.368	316.3588
3825.328	189.8763
3826.288	180.0711
3827.248	192.8648
3828.206	237.3498
3829.165	281.6201
3830.123	39.24501
3831.081	118.2621
3832.038	292.5613
3832.995	386.0042
3833.951	145.2051
3834.907	212.6982
3835.863	328.576
3836.818	51.51761
3837.773	294.0763
3838.728	153.8489
3839.682	369.3872
3840.635	247.6075
3841.589	183.8602
3842.542	177.5148
3843.494	117.2806
3844.446	316.5963
3845.397	242.0832
3846.349	285.4569
3847.299	426.5497
3848.25	181.4408
3849.2	326.6935
3850.149	238.85
3851.099	346.5821
3852.047	295.9875
3852.996	54.08266
3853.944	382.0584
3854.891	211.0344
3855.838	294.3481
3856.785	180.0277
3857.731	68.98347
3858.677	328.224
3859.623	321.0178
3860.568	252.9523
3861.513	397.4904
3862.457	211.6927
3863.401	152.8589
3864.344	497.442
3865.288	359.0133
3866.23	168.4645
3867.173	424.5558
3868.115	279.6429
3869.056	61.0172
3869.997	398.0908
3870.938	408.2934
3871.878	320.8426
3872.818	247.4735
3873.758	374.1525
3874.697	151.6477
3875.635	204.5847
3876.573	237.5429
3877.511	169.746
3878.449	360.2343
3879.386	284.5212
3880.323	191.8682
3881.259	164.2491
3882.195	77.96793
3883.13	309.2815
3884.065	265.675
3885	345.7806
3885.934	215.5856
3886.868	249.9157
3887.802	247.4528
3888.734	381.0416
3889.667	110.066
3890.599	290.1789
3891.531	309.9816
3892.463	92.56151
3893.394	368.3538
3894.324	280.1525
3895.255	475.3025
3896.184	360.1576
3897.114	215.0095
3898.043	16.29627
3898.972	341.179
3899.9	364.0797
3900.828	281.4794
3901.755	199.114
3902.682	246.9794
3903.609	50.38985
3904.535	219.1755
3905.461	85.89655
3906.386	257.5405
3907.311	263.4044
3908.236	356.494
3909.16	398.9698
3910.084	255.4285
3911.008	555.1057
3911.93	175.3342
3912.853	271.7884
3913.775	339.2352
3914.697	152.535
3915.619	480.1277
3916.54	504.6064
3917.46	142.3225
3918.381	158.3291
3919.301	132.4245
3920.22	233.0907
3921.139	411.9888
3922.058	251.1099
3922.976	488.0762
3923.894	518.0314
3924.811	204.3633
3925.728	146.8427
3926.645	318.6528
3927.561	347.9717
3928.477	310.3529
3929.393	299.682
3930.308	364.0602
3931.222	195.7061
3932.136	178.1073
3933.051	160.4832
3933.964	312.0112
3934.877	428.1797
3935.79	386.3187
3936.702	533.8523
3937.614	176.9095
3938.525	328.2483
3939.437	43.59336
3940.347	241.1715
3941.258	343.8934
3942.167	437.5775
3943.077	46.86102
3943.986	445.8365
3944.895	373.7346
3945.803	493.7607
3946.711	160.1181
3947.619	242.6673
3948.526	369.9893
3949.433	146.0737
3950.339	274.5091
3951.245	402.8687
3952.15	269.2009
3953.056	377.9085
3953.96	110.2508
3954.865	126.6915
3955.769	346.8602
3956.672	261.9356
3957.575	19.88624
3958.478	174.1312
3959.381	378.0698
3960.283	279.8716
3961.184	363.232
3962.085	323.3693
3962.986	103.0173
3963.887	42.01717
3964.787	290.4744
3965.687	144.2669
3966.586	223.8773
3967.485	217.3628
3968.383	245.1244
3969.281	268.5566
3970.179	382.8829
3971.076	407.072
3971.973	386.5899
3972.869	104.1421
3973.765	111.8644
3974.661	538.5308
3975.556	40.1837
3976.451	443.5469
3977.346	9.136147
3978.24	253.0357
3979.134	387.1399
3980.027	411.4684
3980.92	344.4511
3981.812	425.2973
3982.705	690.4064
3983.596	273.1175
3984.488	339.3165
3985.379	134.9543
3986.27	313.2779
3987.16	270.9149
3988.05	453.0324
3988.939	278.5312
3989.828	201.1204
3990.717	396.4875
3991.605	226.4849
3992.493	346.453
3993.38	418.4939
3994.267	402.4088
3995.154	369.9482
3996.04	252.8201
3996.926	358.0726
3997.812	208.9043
3998.697	427.0874
3999.581	209.4877
4000.466	250.4512
4001.35	142.1882
4002.233	148.4036
4003.116	256.1185
4003.999	348.267
4004.881	472.5671
4005.763	151.0049
4006.645	541.6799
4007.526	427.665
4008.407	227.7994
4009.287	111.1238
4010.167	197.5545
4011.047	209.1112
4011.927	240.2413
4012.805	146.0847
4013.684	316.2366
4014.562	366.7662
4015.439	416.818
4016.317	9.58979
4017.194	32.51816
4018.07	141.3516
4018.946	254.27
4019.822	412.278
4020.698	283.4192
4021.573	45.33716
4022.447	399.6942
4023.321	276.9805
4024.195	299.9166
4025.068	225.4143
4025.941	276.6519
4026.814	134.3635
4027.686	233.1939
4028.558	89.16616
4029.43	374.9138
4030.301	10.01455
4031.171	220.1265
4032.042	413.3829
4032.912	230.0822
4033.781	212.286
4034.65	7.732841
4035.519	230.3705
4036.387	416.3776
4037.255	327.1915
4038.123	215.3204
4038.99	320.2947
4039.857	251.5545
4040.723	344.913
4041.59	124.1888
4042.455	0.176605
4043.32	120.3037
4044.185	0.00E+00
