127.8601	0.00E+00
130.2173	0.836115
132.5735	12.84733
134.9289	162.518
137.2834	302.1695
139.637	445.3574
141.9897	1020.004
144.3416	1577.054
146.6925	2488.927
149.0426	3447.624
151.3918	4148.118
153.7401	4612.456
156.0875	4478.828
158.4341	4142.743
160.7797	3199.347
163.1245	2268.634
165.4684	1575.564
167.8114	1001.612
170.1535	526.7991
172.4948	484.0488
174.8352	462.3291
177.1747	247.2765
179.5133	160.8295
181.851	146.3472
184.1879	141.1784
186.5238	24.05098
188.859	102.1635
191.1932	85.66878
193.5265	17.03268
195.859	47.83045
198.1906	17.44412
200.5213	72.42253
202.8512	83.06505
205.1802	80.0558
207.5083	71.75461
209.8355	71.02489
212.1618	171.9083
214.4873	139.5289
216.8119	315.8795
219.1357	282.389
221.4585	296.0784
223.7805	269.4767
226.1017	322.5423
228.4219	380.933
230.7413	388.0233
233.0598	461.1863
235.3774	553.9051
237.6942	606.3409
240.0101	612.1484
242.3251	705.2642
244.6393	562.3806
246.9526	961.1559
249.265	929.4839
251.5766	1035.891
253.8873	1215.593
256.1971	1439.398
258.5061	1763.876
260.8142	2198.051
263.1214	2681.711
265.4278	3545.97
267.7333	4583.669
270.0379	5851.617
272.3417	7318.556
274.6446	8981.778
276.9467	10574.71
279.2479	11333.93
281.5482	11265.88
283.8477	10354.45
286.1462	8888.87
288.444	6837.113
290.7409	5095.083
293.0369	3671.069
295.332	2893.737
297.6263	2156.374
299.9198	1692.304
302.2124	1363.215
304.5041	1173.618
306.795	922.3011
309.085	799.8735
311.3741	785.9818
313.6624	768.0545
315.9498	698.6382
318.2364	654.9207
320.5221	559.9189
322.807	527.3297
325.091	503.4719
327.3741	486.2204
329.6564	502.7225
331.9379	488.6872
334.2185	413.47
336.4982	392.8836
338.7771	340.2531
341.0551	329.9639
343.3323	289.2209
345.6086	309.1099
347.8841	303.4876
350.1588	201.7634
352.4325	112.3712
354.7054	191.823
356.9775	234.5452
359.2487	126.8092
361.5191	141.6936
363.7886	185.8368
366.0573	166.895
368.3251	147.4612
370.5921	136.2313
372.8582	242.0059
375.1235	198.9463
377.388	274.1959
379.6516	170.2249
381.9143	265.7642
384.1762	165.8446
386.4372	258.8387
388.6974	275.1217
390.9568	286.5251
393.2153	203.7574
395.473	353.5569
397.7298	379.5457
399.9858	346.7452
402.2409	370.5454
404.4952	302.7727
406.7487	358.3918
409.0013	330.1003
411.2531	308.829
413.504	282.2448
415.7541	386.1981
418.0033	323.1603
420.2517	348.1055
422.4993	298.9801
424.746	309.6938
426.9919	230.2465
429.237	229.1922
431.4812	289.8113
433.7245	306.6315
435.9671	260.1983
438.2088	110.0979
440.4496	182.6923
442.6897	227.7743
444.9289	119.8373
447.1672	168.5912
449.4047	141.8132
451.6414	158.395
453.8773	123.78
456.1123	170.9969
458.3464	149.1864
460.5798	148.718
462.8123	166.5103
465.0439	159.9927
467.2748	176.7115
469.5048	176.7161
471.734	180.1375
473.9623	262.9339
476.1898	351.5796
478.4165	387.0643
480.6424	241.103
482.8674	323.6444
485.0916	264.1104
487.3149	210.376
489.5375	281.3553
491.7592	218.5814
493.98	300.5885
496.2001	205.9191
498.4193	319.4825
500.6377	186.4397
502.8553	297.9733
505.072	140.9531
507.2879	214.1289
509.503	235.3193
511.7172	270.976
513.9307	199.8055
516.1432	286.4226
518.355	239.0353
520.566	114.7527
522.7761	269.0847
524.9854	85.44128
527.1939	188.6165
529.4016	213.84
531.6084	105.8809
533.8144	94.99225
536.0196	228.945
538.2239	95.10684
540.4275	117.9801
542.6302	94.79617
544.8322	52.97678
547.0332	81.31868
549.2335	116.4272
551.4329	122.8021
553.6315	111.1048
555.8293	111.6418
558.0263	117.8051
560.2225	56.82881
562.4178	33.63684
564.6124	146.2036
566.8061	28.10268
568.999	76.8615
571.191	23.22105
573.3823	3.177631
575.5728	34.11184
577.7624	14.96451
579.9512	41.21694
582.1392	119.9298
584.3264	29.10833
586.5128	59.34861
588.6983	17.61755
590.8831	79.74583
593.067	37.19382
595.2501	4.413101
597.4324	41.55779
599.6139	4.64801
601.7946	39.22051
603.9744	65.0006
606.1535	66.15815
608.3317	0.988102
610.5092	0.773163
612.6858	48.52067
614.8616	29.4102
617.0366	84.12547
619.2108	35.62934
621.3842	46.19636
623.5568	5.115311
625.7285	83.17907
627.8995	37.43255
630.0696	33.45064
632.239	71.8622
634.4075	27.79469
636.5753	160.5519
638.7422	77.59968
640.9083	88.75826
643.0736	213.0889
645.2381	144.461
647.4018	97.83794
649.5647	91.01485
651.7268	210.4241
653.8881	7.189003
656.0486	148.8927
658.2083	88.64577
660.3671	74.02681
662.5252	164.0286
664.6824	113.8915
666.8389	138.3195
668.9946	65.73119
671.1495	175.0552
673.3035	71.65295
675.4568	192.4592
677.6093	192.0229
679.7609	28.03602
681.9117	116.9758
684.0618	160.6214
686.2111	93.05877
688.3596	64.50071
690.5072	58.73991
692.6541	54.82172
694.8002	301.8327
696.9454	324.2507
699.0899	498.2682
701.2336	893.4587
703.3765	1277.073
705.5186	1683.484
707.6599	2201.9
709.8004	2345.888
711.94	2411.831
714.0789	1988.264
716.217	1595.584
718.3544	1024.151
720.4908	735.7045
722.6266	452.9203
724.7615	268.5975
726.8957	179.0175
729.029	214.8334
731.1616	142.6268
733.2933	186.7046
735.4243	225.9709
737.5545	163.6422
739.6839	157.1123
741.8124	149.5655
743.9402	171.7108
746.0673	188.4538
748.1935	220.671
750.319	241.4191
752.4436	193.9398
754.5674	203.9636
756.6906	91.30766
758.8128	198.2455
760.9343	198.5955
763.055	17.39713
765.1749	21.24578
767.2941	170.9309
769.4124	87.18348
771.53	90.69482
773.6467	83.84858
775.7628	15.39168
777.8779	173.6463
779.9924	55.00936
782.106	14.04322
784.2188	108.0123
786.3309	14.47337
788.4422	19.7144
790.5527	16.1671
792.6624	40.67551
794.7713	20.947
796.8795	138.6601
798.9868	22.47017
801.0934	47.84499
803.1992	75.52174
805.3043	126.618
807.4085	37.68171
809.512	48.62061
811.6146	36.13308
813.7166	233.058
815.8177	15.41058
817.918	27.89758
820.0176	82.35004
822.1163	90.30861
824.2144	87.60638
826.3116	61.05023
828.408	162.8568
830.5037	163.0938
832.5986	122.2316
834.6927	126.8133
836.7861	66.8541
838.8786	97.68899
840.9704	14.87372
843.0614	0.576156
845.1517	102.0937
847.2411	2.04888
849.3298	72.01884
851.4177	138.8642
853.5049	27.04555
855.5912	70.12247
857.6768	196.7032
859.7617	83.31034
861.8457	26.49427
863.929	33.45663
866.0115	4.68154
868.0932	29.19444
870.1742	6.546646
872.2543	112.4382
874.3338	134.557
876.4124	125.0854
878.4903	9.285011
880.5674	90.7326
882.6437	7.988216
884.7193	111.1164
886.7941	57.95122
888.8682	49.252
890.9414	20.85654
893.0139	183.6721
895.0856	25.99586
897.1566	104.3761
899.2267	62.83912
901.2962	85.02967
903.3649	51.47814
905.4327	146.008
907.4999	3.285992
909.5662	99.0604
911.6318	111.5838
913.6967	17.83563
915.7607	90.73956
917.824	53.26743
919.8865	106.8636
921.9483	2.453972
924.0093	99.93887
926.0696	92.26073
928.1291	79.37251
930.1878	55.59151
932.2457	101.7579
934.3029	188.6112
936.3594	73.63018
938.415	29.70796
940.47	93.49457
942.5241	190.618
944.5775	28.29106
946.6301	20.37609
948.682	12.6174
950.7331	122.9331
952.7834	150.9178
954.8331	55.86392
956.8819	24.01822
958.93	55.01355
960.9773	25.66852
963.0239	2.342989
965.0696	66.27186
967.1147	53.36044
969.159	48.02727
971.2025	56.3758
973.2453	85.56917
975.2873	40.59477
977.3286	7.20E-02
979.3691	100.0682
981.4088	19.99353
983.4478	80.93996
985.4861	142.2815
987.5236	216.4297
989.5603	62.63686
991.5963	60.92907
993.6315	132.9788
995.666	139.007
997.6997	119.0675
999.7327	217.9173
1001.765	179.8261
1003.796	221.3108
1005.827	245.9043
1007.857	207.3095
1009.886	263.2225
1011.915	338.2909
1013.942	379.8068
1015.969	378.2098
1017.996	287.058
1020.021	351.5164
1022.046	215.5862
1024.07	320.9905
1026.093	277.9994
1028.115	335.1459
1030.137	195.068
1032.158	324.7806
1034.178	249.5066
1036.198	247.8142
1038.217	191.622
1040.235	301.0566
1042.252	326.4255
1044.268	210.4946
1046.284	275.4051
1048.299	183.6777
1050.313	165.9901
1052.327	302.7592
1054.34	424.6916
1056.352	398.8286
1058.363	393.426
1060.373	470.0111
1062.383	463.4413
1064.392	566.9368
1066.401	630.3212
1068.408	921.0269
1070.415	1644.389
1072.421	2810.008
1074.426	4912.047
1076.431	7864.017
1078.435	11633.69
1080.438	15286.72
1082.44	17993.64
1084.442	18786.8
1086.443	17128.01
1088.443	13831.26
1090.443	9387.881
1092.441	5599.079
1094.439	2791.97
1096.436	1573.735
1098.433	957.1039
1100.429	724.1801
1102.424	501.3803
1104.418	471.0687
1106.411	348.757
1108.404	375.5459
1110.396	365.3414
1112.387	292.3258
1114.378	260.6941
1116.368	235.4367
1118.357	346.3965
1120.345	211.1474
1122.333	289.3101
1124.32	248.5604
1126.306	274.2128
1128.292	243.3276
1130.276	294.3951
1132.26	338.793
1134.243	383.9521
1136.226	275.807
1138.208	272.2073
1140.189	245.075
1142.169	100.9969
1144.149	240.4496
1146.127	167.4076
1148.105	140.2815
1150.083	109.3552
1152.06	89.33852
1154.036	152.7918
1156.011	105.8525
1157.985	76.26019
1159.959	94.47325
1161.932	75.13746
1163.904	198.1147
1165.876	3.40172
1167.847	159.6695
1169.817	68.54351
1171.786	79.37249
1173.755	166.5336
1175.723	161.9417
1177.69	74.14133
1179.656	120.6814
1181.622	50.39776
1183.587	194.392
1185.551	53.79575
1187.515	157.5547
1189.478	128.6985
1191.44	52.78654
1193.401	32.57273
1195.362	146.0069
1197.322	103.2257
1199.281	215.9893
1201.239	217.7567
1203.197	109.5888
1205.154	168.42
1207.11	199.9051
1209.066	215.4016
1211.021	274.8578
1212.975	190.3178
1214.929	124.6288
1216.881	153.534
1218.833	232.3286
1220.785	98.59467
1222.735	177.8894
1224.685	112.6565
1226.634	135.2903
1228.582	187.8976
1230.53	243.553
1232.477	232.1724
1234.423	122.2761
1236.369	258.0824
1238.314	249.327
1240.258	38.93402
1242.201	273.1939
1244.144	131.7762
1246.086	235.9523
1248.027	212.8268
1249.967	147.2032
1251.907	264.7597
1253.846	258.9235
1255.785	153.6534
1257.722	93.54878
1259.659	208.8161
1261.595	37.8173
1263.531	159.9039
1265.466	110.3144
1267.4	124.1962
1269.333	235.1358
1271.266	77.94807
1273.198	109.4325
1275.129	124.1989
1277.059	108.2468
1278.989	106.032
1280.918	163.5876
1282.847	64.52923
1284.774	114.6223
1286.701	47.53055
1288.627	147.5025
1290.553	98.91345
1292.478	143.6241
1294.402	72.06173
1296.325	8.608261
1298.248	61.8097
1300.17	174.3646
1302.091	37.2338
1304.012	101.2903
1305.932	126.1719
1307.851	29.18494
1309.769	228.4609
1311.687	281.0284
1313.604	217.7528
1315.52	178.6501
1317.436	364.831
1319.351	304.3803
1321.265	292.5182
1323.178	418.2919
1325.091	350.7783
1327.003	394.3634
1328.915	436.3765
1330.825	352.8336
1332.735	203.5371
1334.645	350.6274
1336.553	193.3219
1338.461	194.9643
1340.368	339.3195
1342.275	292.9815
1344.18	256.8432
1346.085	262.0381
1347.99	157.8928
1349.893	285.1683
1351.796	250.854
1353.699	253.1455
1355.6	87.38326
1357.501	298.2444
1359.401	250.4337
1361.301	151.4577
1363.199	72.80488
1365.097	148.2769
1366.995	52.57764
1368.891	53.57067
1370.787	135.0714
1372.682	98.88783
1374.577	12.80677
1376.471	118.2727
1378.364	48.80663
1380.256	202.9358
1382.148	27.55306
1384.039	77.1355
1385.929	14.58187
1387.819	14.28352
1389.708	168.8277
1391.596	14.06177
1393.484	6.21748
1395.371	61.85948
1397.257	23.82808
1399.142	27.32333
1401.027	81.46703
1402.911	41.68951
1404.795	64.74023
1406.677	116.2218
1408.559	83.06561
1410.441	91.1344
1412.321	92.43001
1414.201	197.4094
1416.08	63.78695
1417.959	212.5218
1419.837	215.512
1421.714	285.8944
1423.59	385.8207
1425.466	446.7292
1427.341	462.5186
1429.216	680.5637
1431.089	591.4633
1432.963	573.1306
1434.835	702.5998
1436.706	770.9529
1438.577	495.3639
1440.448	576.3644
1442.317	317.7545
1444.186	441.5428
1446.054	395.9106
1447.922	351.1027
1449.789	415.6307
1451.655	331.829
1453.52	352.7166
1455.385	226.1477
1457.249	295.6545
1459.112	189.3302
1460.975	205.7544
1462.837	382.901
1464.698	271.0258
1466.559	314.5847
1468.419	413.719
1470.278	315.4541
1472.137	332.625
1473.995	411.0719
1475.852	308.6233
1477.708	454.1333
1479.564	216.4125
1481.419	221.739
1483.274	238.5528
1485.128	141.2802
1486.981	201.1853
1488.833	250.7099
1490.685	192.0927
1492.536	273.362
1494.386	135.765
1496.236	56.44008
1498.085	122.3881
1499.933	16.45624
1501.781	52.65796
1503.628	169.3829
1505.474	44.60741
1507.32	222.0832
1509.165	57.04366
1511.009	55.47797
1512.853	51.25755
1514.695	111.7895
1516.538	37.65612
1518.379	166.6376
1520.22	54.3686
1522.06	17.9604
1523.9	16.76823
1525.739	115.487
1527.577	216.5554
1529.414	171.9828
1531.251	296.4195
1533.087	150.7318
1534.922	92.28512
1536.757	77.04381
1538.591	120.3957
1540.425	96.20712
1542.257	14.04857
1544.089	204.4635
1545.921	100.4642
1547.752	188.9657
1549.582	44.93164
1551.411	265.4429
1553.24	241.4505
1555.068	308.2341
1556.895	311.2171
1558.722	364.4928
1560.548	229.7453
1562.373	364.5526
1564.198	354.8968
1566.022	369.2497
1567.845	342.6204
1569.668	393.7792
1571.49	214.8527
1573.311	317.2849
1575.131	241.2927
1576.951	274.3385
1578.771	420.5425
1580.589	190.0685
1582.407	175.4787
1584.224	217.5103
1586.041	258.9432
1587.857	267.3687
1589.672	216.4208
1591.487	271.918
1593.301	146.071
1595.114	243.0753
1596.927	23.00128
1598.739	367.4635
1600.55	211.0574
1602.36	107.8593
1604.17	20.53923
1605.98	137.3299
1607.788	243.3597
1609.596	77.93479
1611.403	60.11117
1613.21	62.29177
1615.016	44.76659
1616.821	74.07052
1618.626	19.32183
1620.43	179.4174
1622.233	6.304747
1624.036	4.253128
1625.838	30.65588
1627.639	84.98454
1629.439	139.106
1631.239	5.369823
1633.039	217.083
1634.837	185.2251
1636.635	95.04349
1638.432	169.1476
1640.229	188.477
1642.025	119.4077
1643.82	7.566586
1645.615	107.0139
1647.409	23.80365
1649.202	145.1118
1650.995	43.65331
1652.787	75.83196
1654.578	179.65
1656.369	11.49101
1658.159	166.5094
1659.948	198.5426
1661.737	258.952
1663.525	249.0965
1665.313	99.79164
1667.099	177.9998
1668.885	116.9902
1670.671	220.6548
1672.456	124.1195
1674.24	203.6288
1676.023	249.8349
1677.806	242.5101
1679.588	250.022
1681.37	226.54
1683.151	312.4856
1684.931	214.559
1686.71	225.9006
1688.489	153.7372
1690.267	129.52
1692.045	241.5299
1693.822	161.5123
1695.598	245.8159
1697.374	84.26942
1699.148	180.2647
1700.923	314.9733
1702.696	221.3186
1704.469	227.1058
1706.242	321.1902
1708.013	209.828
1709.784	151.8878
1711.555	122.5865
1713.324	198.7965
1715.093	309.9769
1716.862	141.9755
1718.63	261.0109
1720.397	197.4824
1722.163	94.4068
1723.929	227.2588
1725.694	153.1366
1727.458	183.9059
1729.222	168.9049
1730.986	278.654
1732.748	35.06136
1734.51	250.3692
1736.271	125.1487
1738.032	315.2533
1739.792	213.0565
1741.551	613.5084
1743.31	368.1239
1745.068	580.8193
1746.825	414.8687
1748.582	613.5002
1750.338	400.695
1752.093	231.0679
1753.848	112.3558
1755.602	188.957
1757.356	137.159
1759.109	78.03824
1760.861	114.3209
1762.612	61.0223
1764.363	28.86922
1766.114	119.605
1767.863	22.35213
1769.612	64.21048
1771.36	49.66389
1773.108	195.3322
1774.855	160.6245
1776.602	209.4521
1778.347	235.1435
1780.092	18.90381
1781.837	125.4849
1783.581	67.33188
1785.324	135.0908
1787.066	67.35661
1788.808	57.42419
1790.55	181.198
1792.29	123.9084
1794.03	182.3549
1795.769	208.9216
1797.508	160.964
1799.246	90.86023
1800.984	18.04889
1802.72	22.20083
1804.456	76.79594
1806.192	41.03638
1807.927	161.6954
1809.661	17.90927
1811.395	160.02
1813.127	111.0918
1814.86	116.042
1816.591	319.7691
1818.322	6.787278
1820.053	29.45564
1821.783	26.9255
1823.512	107.6206
1825.24	205.414
1826.968	104.9919
1828.695	106.0459
1830.422	6.025137
1832.148	46.24808
1833.873	78.32324
1835.598	43.61774
1837.322	77.11672
1839.045	46.45392
1840.768	104.7329
1842.49	14.77663
1844.211	11.94079
1845.932	5.692069
1847.652	3.10216
1849.372	86.07179
1851.091	44.40741
1852.809	227.2352
1854.527	16.7869
1856.244	93.53683
1857.96	49.45135
1859.676	136.478
1861.391	12.1276
1863.106	204.9062
1864.819	66.27702
1866.533	57.8919
1868.245	87.58392
1869.957	51.8889
1871.669	23.62962
1873.379	1.195571
1875.089	124.3968
1876.799	45.84456
1878.508	20.03083
1880.216	207.4838
1881.924	26.79704
1883.63	117.3445
1885.337	142.7758
1887.042	46.54269
1888.748	229.1085
1890.452	272.126
1892.156	114.4407
1893.859	310.3312
1895.561	264.2464
1897.263	138.3193
1898.965	185.6454
1900.665	81.66935
1902.365	55.80394
1904.065	311.1237
1905.763	227.5579
1907.462	118.9994
1909.159	145.4397
1910.856	242.4181
1912.552	104.1443
1914.248	238.9639
1915.943	98.3619
1917.637	18.65174
1919.331	143.1264
1921.024	233.2141
1922.717	41.26017
1924.409	170.2377
1926.1	122.3083
1927.791	55.19022
1929.481	141.2495
1931.17	259.6949
1932.859	32.21435
1934.547	294.2307
1936.235	214.9017
1937.922	183.5502
1939.608	2.297563
1941.293	166.7817
1942.979	89.24028
1944.663	305.0296
1946.347	194.2224
1948.03	243.5453
1949.713	229.067
1951.394	84.77386
1953.076	205.9935
1954.756	229.878
1956.437	143.7759
1958.116	182.8082
1959.795	94.03241
1961.473	236.5063
1963.151	163.8747
1964.828	126.5831
1966.504	56.23122
1968.18	169.2315
1969.855	84.65689
1971.529	265.8615
1973.203	129.608
1974.877	262.5223
1976.549	321.7706
1978.221	235.5308
1979.893	114.5289
1981.564	174.3308
1983.234	110.3005
1984.903	270.2411
1986.572	252.8543
1988.241	227.1654
1989.908	286.2117
1991.575	175.6815
1993.242	195.9091
1994.908	153.3029
1996.573	151.3761
1998.238	201.1709
1999.902	319.1032
2001.565	159.0723
2003.228	214.2689
2004.89	299.1122
2006.552	110.6355
2008.213	384.8921
2009.873	224.6872
2011.533	139.9615
2013.192	202.2362
2014.851	295.0417
2016.509	127.9951
2018.166	309.2555
2019.823	195.5276
2021.479	199.2253
2023.134	251.6644
2024.789	154.3903
2026.443	225.3042
2028.097	290.0393
2029.75	239.8073
2031.402	148.6442
2033.054	110.633
2034.705	128.9347
2036.356	216.4327
2038.006	160.0865
2039.655	8.840865
2041.304	306.8783
2042.952	14.94686
2044.6	165.8146
2046.247	106.2976
2047.893	221.307
2049.539	3.364405
2051.184	275.3061
2052.828	32.00143
2054.472	108.5774
2056.115	52.02469
2057.758	137.1845
2059.4	14.93209
2061.042	95.39992
2062.682	10.5521
2064.323	25.6108
2065.962	3.128284
2067.601	106.9416
2069.24	13.0964
2070.878	202.6175
2072.515	33.39459
2074.152	74.32893
2075.788	54.7371
2077.423	14.17052
2079.058	109.1553
2080.692	59.82068
2082.326	61.48186
2083.958	345.7148
2085.591	118.7731
2087.223	266.9037
2088.854	53.00687
2090.485	164.4211
2092.115	28.99266
2093.744	177.431
2095.373	108.6555
2097.001	143.4229
2098.628	107.4991
2100.255	182.0254
2101.882	123.7036
2103.508	196.7756
2105.133	167.3898
2106.757	18.24689
2108.381	225.1286
2110.005	95.58426
2111.627	237.4064
2113.25	194.1003
2114.871	245.122
2116.492	468.7122
2118.113	133.0253
2119.732	137.0414
2121.352	319.5545
2122.97	189.1976
2124.588	169.8709
2126.206	341.4293
2127.822	309.2562
2129.438	277.2089
2131.054	269.0396
2132.669	247.2635
2134.283	319.1862
2135.897	403.6745
2137.51	350.9591
2139.123	513.1645
2140.735	171.4786
2142.346	246.3728
2143.957	389.2803
2145.567	236.514
2147.177	410.5489
2148.786	429.7961
2150.395	211.6275
2152.002	252.1819
2153.61	168.5624
2155.216	356.343
2156.822	325.3885
2158.428	310.7928
2160.033	161.6633
2161.637	221.291
2163.241	246.5949
2164.844	208.2909
2166.446	191.4411
2168.048	263.8058
2169.649	196.56
2171.25	146.8562
2172.85	102.0529
2174.45	238.9587
2176.049	119.3984
2177.647	285.8678
2179.245	64.49168
2180.842	276.1318
2182.439	102.7252
2184.035	267.3672
2185.63	38.58767
2187.225	168.9102
2188.819	48.1647
2190.413	81.28603
2192.006	154.9749
2193.598	85.45911
2195.19	36.3223
2196.781	191.013
2198.372	46.33561
2199.962	7.276676
2201.552	116.7795
2203.141	7.1536
2204.729	132.5058
2206.317	127.0918
2207.904	169.7413
2209.49	172.2318
2211.076	62.84905
2212.662	38.48362
2214.247	85.76543
2215.831	38.69637
2217.414	52.46693
2218.998	65.24623
2220.58	11.72746
2222.162	19.84497
2223.743	92.13683
2225.324	67.27444
2226.904	61.60501
2228.483	184.2688
2230.062	19.66462
2231.641	118.0467
2233.219	112.6157
2234.796	124.3965
2236.372	175.8974
2237.948	123.249
2239.524	1.447281
2241.099	160.7159
2242.673	125.7204
2244.247	106.7817
2245.82	110.3163
2247.392	309.2053
2248.964	99.04448
2250.536	120.1662
2252.106	113.1014
2253.677	142.1793
2255.246	142.8037
2256.815	12.06146
2258.384	140.3625
2259.951	375.807
2261.519	31.9063
2263.085	284.1813
2264.652	293.3514
2266.217	186.6698
2267.782	66.32463
2269.346	280.7307
2270.91	190.8713
2272.474	261.7974
2274.036	187.1848
2275.598	280.355
2277.16	59.38651
2278.721	257.1815
2280.281	228.7091
2281.841	76.99467
2283.4	9.26897
2284.958	202.6244
2286.517	322.6974
2288.074	106.2572
2289.631	32.28465
2291.187	124.5515
2292.743	96.87334
2294.298	88.51007
2295.853	19.42373
2297.406	121.5592
2298.96	150.6112
2300.513	312.7246
2302.065	126.2081
2303.617	215.8248
2305.168	145.767
2306.718	275.4344
2308.268	49.01373
2309.818	260.6448
2311.366	271.4714
2312.915	220.468
2314.462	155.9678
2316.01	130.6754
2317.556	101.7018
2319.102	168.8897
2320.647	167.1394
2322.192	160.5001
2323.736	6.709137
2325.28	228.6198
2326.823	130.145
2328.365	188.1625
2329.907	52.35291
2331.449	76.34341
2332.99	148.9602
2334.53	104.8064
2336.069	31.9269
2337.608	60.04906
2339.147	51.7745
2340.685	146.7334
2342.222	89.58688
2343.759	137.4978
2345.295	174.3342
2346.831	79.68304
2348.366	81.33926
2349.9	145.9672
2351.434	288.1374
2352.968	109.6334
2354.5	26.54242
2356.033	21.76638
2357.564	66.53502
2359.095	212.5752
2360.626	212.7956
2362.156	178.2521
2363.685	80.26773
2365.214	201.7334
2366.742	86.12798
2368.27	135.897
2369.797	66.02554
2371.323	210.3334
2372.849	127.3686
2374.375	232.2582
2375.9	17.74976
2377.424	140.1266
2378.948	184.8579
2380.471	114.4412
2381.993	31.09366
2383.515	262.6065
2385.037	242.0502
2386.558	173.487
2388.078	114.1179
2389.598	81.5482
2391.117	99.88005
2392.635	191.7579
2394.154	1.172644
2395.671	111.1916
2397.188	89.06867
2398.704	232.8065
2400.22	101.1482
2401.735	228.379
2403.25	119.8573
2404.764	241.1178
2406.278	119.5938
2407.791	156.3264
2409.303	139.3165
2410.815	71.28355
2412.326	226.2359
2413.837	394.3409
2415.347	140.645
2416.857	247.3285
2418.366	44.40177
2419.874	211.6252
2421.382	192.3179
2422.889	200.0557
2424.396	19.75607
2425.903	100.8603
2427.408	161.9524
2428.913	323.3678
2430.418	143.0323
2431.922	125.8743
2433.425	149.4677
2434.928	127.7329
2436.43	123.2217
2437.932	250.0494
2439.433	149.9982
2440.934	70.47799
2442.434	98.03566
2443.934	144.0311
2445.433	209.7026
2446.931	258.5672
2448.429	133.5606
2449.926	277.5151
2451.423	221.6357
2452.919	270.2542
2454.415	268.6997
2455.91	307.3184
2457.404	288.9834
2458.898	97.19623
2460.392	249.1342
2461.885	211.7796
2463.377	231.3194
2464.868	359.4374
2466.36	180.9036
2467.85	63.07209
2469.34	162.7703
2470.83	176.0763
2472.319	179.2526
2473.807	171.08
2475.295	159.7543
2476.782	358.5027
2478.269	153.7159
2479.755	160.3686
2481.241	239.3728
2482.726	324.2788
2484.21	258.6909
2485.694	192.3297
2487.178	178.6469
2488.66	348.3058
2490.143	272.1132
2491.625	203.64
2493.106	205.1833
2494.586	206.9466
2496.066	312.531
2497.546	199.3488
2499.025	247.966
2500.503	171.2075
2501.981	370.0575
2503.459	228.4003
2504.935	369.6052
2506.412	192.285
2507.887	390.5877
2509.363	281.1996
2510.837	156.11
2512.311	322.1251
2513.784	178.6457
2515.258	305.7538
2516.73	30.71507
2518.202	217.601
2519.673	170.7653
2521.144	163.155
2522.614	104.9925
2524.083	259.5186
2525.552	158.8003
2527.021	310.1187
2528.489	22.08578
2529.957	388.8809
2531.423	282.2964
2532.89	378.5789
2534.355	101.9965
2535.821	338.3224
2537.285	110.8126
2538.75	181.903
2540.213	8.144495
2541.676	53.26729
2543.139	255.763
2544.601	208.894
2546.062	93.87174
2547.523	84.18616
2548.983	233.9785
2550.443	43.32472
2551.902	133.189
2553.361	168.8622
2554.819	181.4748
2556.277	312.2156
2557.734	69.89375
2559.19	159.2977
2560.646	109.2986
2562.102	93.79064
2563.557	119.578
2565.011	182.9903
2566.465	68.06187
2567.918	46.13031
2569.371	47.23984
2570.823	201.5529
2572.275	154.0282
2573.726	55.1301
2575.176	185.1829
2576.626	7.502217
2578.076	124.6488
2579.525	159.9759
2580.973	51.62147
2582.421	163.6229
2583.868	237.8602
2585.315	205.4214
2586.761	81.64085
2588.207	188.9612
2589.652	269.2156
2591.096	7.957789
2592.54	16.5196
2593.984	18.67848
2595.427	226.4275
2596.869	85.55907
2598.311	0.861728
2599.752	194.358
2601.193	229.4713
2602.634	75.01865
2604.073	221.0047
2605.512	43.36863
2606.951	23.72851
2608.389	9.18015
2609.827	435.5268
2611.264	280.3719
2612.7	176.3384
2614.136	144.9769
2615.572	128.3813
2617.007	351.2274
2618.441	84.95387
2619.875	199.839
2621.308	63.33065
2622.741	191.0906
2624.173	215.4133
2625.604	204.2939
2627.036	206.7685
2628.466	182.4556
2629.896	368.3214
2631.326	135.6555
2632.755	22.94273
2634.183	261.5468
2635.611	178.1851
2637.038	262.3826
2638.465	356.497
2639.892	191.204
2641.317	197.3469
2642.742	267.6942
2644.167	35.92002
2645.591	285.197
2647.015	176.5298
2648.438	147.8165
2649.861	102.4727
2651.283	165.2966
2652.704	276.5024
2654.125	258.0784
2655.545	254.4268
2656.965	169.2539
2658.385	27.75386
2659.803	217.7661
2661.222	248.0079
2662.64	200.228
2664.057	105.2298
2665.474	203.3246
2666.89	64.35973
2668.305	210.3159
2669.72	17.32932
2671.135	328.6368
2672.549	118.7042
2673.963	114.953
2675.375	162.5106
2676.788	197.4132
2678.2	138.7158
2679.611	274.2852
2681.022	135.0669
2682.432	113.642
2683.842	39.29644
2685.251	451.5974
2686.66	243.4949
2688.068	99.47528
2689.476	77.22974
2690.883	129.2279
2692.29	41.02793
2693.696	243.4247
2695.102	68.2301
2696.507	243.7384
2697.911	236.2404
2699.315	162.9368
2700.719	169.3444
2702.121	63.22723
2703.524	1.298153
2704.926	0.989647
2706.327	23.13386
2707.728	73.56183
2709.128	38.86777
2710.528	203.6685
2711.927	128.3268
2713.326	189.8039
2714.724	379.8151
2716.122	243.5705
2717.519	151.9644
2718.916	214.4008
2720.312	136.7932
2721.707	156.6065
2723.102	74.03217
2724.497	220.1651
2725.891	2.524237
2727.284	240.1534
2728.677	147.7538
2730.069	5.790351
2731.461	198.4739
2732.853	150.8244
2734.243	182.0357
2735.634	161.141
2737.023	115.9954
2738.413	26.32763
2739.802	122.5372
2741.19	291.4621
2742.577	169.022
2743.965	274.9431
2745.351	38.63813
2746.737	330.441
2748.123	184.7983
2749.508	223.6573
2750.893	149.8792
2752.277	171.7502
2753.66	54.58542
2755.043	121.7069
2756.426	121.1263
2757.808	289.6107
2759.189	285.1497
2760.57	288.9279
2761.95	159.4317
2763.33	186.6373
2764.709	99.36338
2766.088	305.0985
2767.467	182.7028
2768.844	246.5571
2770.222	88.53637
2771.598	125.3789
2772.975	58.60397
2774.35	204.5183
2775.726	86.10174
2777.1	218.9722
2778.474	208.7012
2779.848	333.988
2781.221	130.9603
2782.594	86.04896
2783.966	203.6535
2785.337	258.7245
2786.708	48.10007
2788.079	251.6345
2789.449	277.6362
2790.819	144.3619
2792.188	153.2425
2793.556	328.7352
2794.924	77.38943
2796.291	288.8986
2797.658	15.00893
2799.025	104.1534
2800.39	417.1708
2801.756	209.9902
2803.121	220.392
2804.485	179.7198
2805.849	278.4745
2807.212	157.1168
2808.575	164.3986
2809.937	13.70859
2811.299	99.42719
2812.66	107.4021
2814.021	214.8626
2815.381	78.90774
2816.741	176.7285
2818.1	127.0159
2819.459	153.6689
2820.817	361.672
2822.175	159.2027
2823.531	101.5981
2824.888	97.53761
2826.244	293.1852
2827.6	98.91647
2828.955	145.3589
2830.31	253.9891
2831.664	7.280271
2833.017	300.1516
2834.37	21.64988
2835.723	208.8814
2837.075	178.3369
2838.426	136.6936
2839.777	118.2036
2841.128	115.5371
2842.478	341.8249
2843.827	54.47182
2845.176	113.017
2846.524	97.44902
2847.872	172.2858
2849.22	143.8289
2850.566	89.18175
2851.913	243.5081
2853.259	129.5288
2854.604	252.8585
2855.949	169.0898
2857.293	169.4353
2858.637	336.5666
2859.98	246.6463
2861.323	77.73927
2862.666	376.7961
2864.007	177.9496
2865.349	169.9892
2866.689	212.213
2868.03	4.063248
2869.369	388.8514
2870.709	225.1665
2872.047	139.5896
2873.386	106.6692
2874.723	33.13839
2876.061	292.7528
2877.397	183.3735
2878.734	190.1537
2880.069	488.7202
2881.405	101.848
2882.739	91.81487
2884.073	25.0925
2885.407	178.1459
2886.74	88.31371
2888.073	122.4416
2889.405	9.441001
2890.737	61.76847
2892.068	83.07761
2893.398	236.2034
2894.729	46.89428
2896.058	111.3102
2897.387	209.7023
2898.716	274.2334
2900.044	140.293
2901.372	192.6212
2902.699	136.4288
2904.025	141.1082
2905.351	195.3093
2906.677	291.541
2908.002	29.42886
2909.327	41.05165
2910.651	71.57062
2911.974	303.9147
2913.297	76.97188
2914.62	240.3347
2915.942	28.69991
2917.264	77.92358
2918.585	317.0718
2919.905	133.2973
2921.225	217.7599
2922.545	157.7805
2923.864	262.5938
2925.182	200.4335
2926.5	44.32569
2927.818	221.6089
2929.135	218.2367
2930.452	147.9834
2931.768	1.890887
2933.083	77.35905
2934.398	150.0689
2935.713	145.4453
2937.027	175.297
2938.34	265.5078
2939.653	125.7565
2940.966	364.0449
2942.278	17.68739
2943.59	246.6632
2944.901	291.6148
2946.211	407.8891
2947.521	178.127
2948.831	332.213
2950.14	252.5796
2951.448	191.4493
2952.756	307.743
2954.064	53.43227
2955.371	101.7145
2956.677	28.6981
2957.983	161.6195
2959.289	165.5979
2960.594	247.725
2961.899	341.0924
2963.203	82.14792
2964.506	347.2207
2965.809	534.6774
2967.112	341.8094
2968.414	96.12834
2969.716	145.151
2971.017	313.1063
2972.317	164.0522
2973.617	300.8685
2974.917	166.0642
2976.216	211.9998
2977.515	176.7694
2978.813	42.39407
2980.11	134.569
2981.407	421.5583
2982.704	64.6125
2984	116.5963
2985.296	218.8617
2986.591	202.9276
2987.885	199.609
2989.18	223.0207
2990.473	4.052215
2991.766	229.6224
2993.059	413.6929
2994.351	231.4267
2995.643	344.5936
2996.934	124.9211
2998.225	254.7625
2999.515	45.09694
3000.805	143.6082
3002.094	86.67709
3003.383	24.77738
3004.671	226.2649
3005.958	217.4426
3007.246	387.5855
3008.532	249.8493
3009.819	131.8773
3011.104	110.5774
3012.39	252.0821
3013.674	205.1194
3014.959	375.6776
3016.242	21.71591
3017.526	61.03175
3018.809	235.0922
3020.091	16.79206
3021.373	60.03008
3022.654	266.2238
3023.935	212.7641
3025.215	358.9396
3026.495	88.04097
3027.774	47.41403
3029.053	181.4076
3030.332	208.2948
3031.61	57.20579
3032.887	150.9473
3034.164	93.01179
3035.44	158.5322
3036.716	21.30234
3037.992	101.3147
3039.267	5.473887
3040.541	186.1062
3041.815	214.4013
3043.089	106.6287
3044.362	142.036
3045.634	272.5543
3046.906	133.4344
3048.178	356.9821
3049.449	268.6063
3050.719	147.543
3051.99	97.01913
3053.259	73.53898
3054.528	335.1573
3055.797	210.8456
3057.065	211.8611
3058.333	51.69503
3059.6	59.76001
3060.866	50.50505
3062.132	326.4807
3063.398	228.5479
3064.663	247.6805
3065.928	159.1791
3067.192	321.5672
3068.456	245.1933
3069.719	249.1512
3070.982	389.4146
3072.244	201.916
3073.506	144.4261
3074.768	258.4932
3076.028	244.9388
3077.289	177.6053
3078.549	113.708
3079.808	141.727
3081.067	99.72402
3082.325	415.4781
3083.583	329.9933
3084.841	131.1128
3086.098	39.88264
3087.354	391.9985
3088.61	236.5048
3089.865	369.581
3091.121	225.1587
3092.375	71.16908
3093.629	348.0574
3094.883	215.2024
3096.136	153.9439
3097.388	173.24
3098.641	180.5667
3099.892	250.5294
3101.143	238.23
3102.394	14.04403
3103.644	135.9213
3104.894	235.2609
3106.143	34.55468
3107.392	295.657
3108.64	326.7604
3109.888	309.5366
3111.135	126.4841
3112.382	77.47279
3113.629	156.5048
3114.875	242.4911
3116.12	132.2212
3117.365	291.0517
3118.609	25.41773
3119.853	277.7943
3121.097	3.286545
3122.34	301.7277
3123.582	151.0051
3124.824	147.288
3126.066	133.9978
3127.307	88.23414
3128.547	318.1681
3129.787	147.9252
3131.027	291.0623
3132.266	88.36257
3133.505	75.36999
3134.743	514.3972
3135.981	44.4698
3137.218	358.6153
3138.455	98.60738
3139.691	149.8739
3140.927	340.777
3142.162	305.0508
3143.397	220.2028
3144.631	15.41426
3145.865	169.1864
3147.099	292.8028
3148.332	95.31066
3149.564	303.7143
3150.796	191.3509
3152.028	40.25478
3153.259	236.3476
3154.489	74.39969
3155.719	231.6785
3156.949	225.8336
3158.178	293.467
3159.407	166.802
3160.635	283.3949
3161.863	213.5978
3163.09	318.415
3164.317	357.2139
3165.543	201.8518
3166.769	176.0558
3167.994	33.94103
3169.219	200.6517
3170.443	221.7021
3171.667	266.5254
3172.891	215.3873
3174.114	229.4248
3175.336	8.048071
3176.558	352.3201
3177.78	151.2974
3179	237.4933
3180.221	340.5572
3181.441	270.9389
3182.661	491.555
3183.88	432.8709
3185.099	341.4913
3186.317	85.25954
3187.535	139.1612
3188.752	152.6505
3189.969	132.4851
3191.185	378.0443
3192.401	378.1023
3193.616	98.6407
3194.831	197.5452
3196.046	522.3979
3197.26	58.21053
3198.473	287.1846
3199.686	224.6803
3200.899	210.5406
3202.111	120.2522
3203.323	149.7417
3204.533	49.61378
3205.744	439.1704
3206.954	140.1106
3208.164	238.2357
3209.374	170.2652
3210.582	347.0296
3211.791	142.1498
3212.998	156.5012
3214.206	314.4359
3215.413	437.1299
3216.619	330.0569
3217.825	378.9187
3219.031	159.8852
3220.236	209.0496
3221.44	135.2946
3222.644	155.4855
3223.848	178.2663
3225.051	357.328
3226.254	210.4103
3227.456	130.8399
3228.658	221.2991
3229.859	259.8813
3231.06	444.766
3232.26	193.3342
3233.46	295.7652
3234.659	211.6152
3235.858	254.1588
3237.057	240.9468
3238.255	108.9192
3239.452	256.2778
3240.649	203.7471
3241.846	172.7067
3243.042	152.0567
3244.238	286.2075
3245.433	248.7582
3246.628	251.7983
3247.822	209.6084
3249.016	175.6437
3250.209	400.3768
3251.402	336.4366
3252.594	128.4582
3253.786	287.654
3254.978	458.361
3256.169	266.2157
3257.359	235.8987
3258.55	52.43591
3259.739	73.72756
3260.928	165.2597
3262.117	261.457
3263.305	204.1418
3264.493	6.680161
3265.68	216.6503
3266.867	150.4778
3268.053	291.5339
3269.239	203.1821
3270.425	91.14034
3271.61	131.8339
3272.794	104.6766
3273.978	351.5296
3275.162	223.769
3276.345	78.29022
3277.528	162.4628
3278.71	239.4525
3279.892	218.4595
3281.073	122.2045
3282.254	77.93978
3283.434	349.5114
3284.614	171.7915
3285.793	63.33825
3286.972	133.8174
3288.151	290.7874
3289.329	126.6488
3290.506	302.9934
3291.684	173.0404
3292.86	163.4352
3294.036	235.2096
3295.212	143.2301
3296.387	289.4292
3297.562	66.27953
3298.737	321.5798
3299.91	310.0183
3301.084	83.36546
3302.257	20.51265
3303.429	48.10854
3304.601	345.0486
3305.773	38.36385
3306.944	256.6282
3308.115	19.10172
3309.285	447.7146
3310.455	154.7184
3311.624	228.8745
3312.793	259.3319
3313.961	366.2659
3315.129	357.642
3316.296	343.9051
3317.463	263.6241
3318.63	69.10073
3319.796	142.8445
3320.962	211.366
3322.127	217.7229
3323.292	358.4994
3324.456	306.8539
3325.619	141.2063
3326.783	290.9881
3327.946	165.0615
3329.108	184.1068
3330.27	291.5809
3331.431	183.8887
3332.593	264.9751
3333.753	295.3681
3334.913	62.68404
3336.073	269.9071
3337.232	140.843
3338.391	297.3156
3339.549	255.3885
3340.707	134.8121
3341.864	15.52466
3343.021	266.4681
3344.178	123.2797
3345.334	34.23257
3346.489	71.07829
3347.644	110.0695
3348.799	306.8114
3349.953	292.0165
3351.107	348.6433
3352.26	69.99202
3353.413	111.9974
3354.565	157.2196
3355.717	217.3865
3356.869	220.0022
3358.02	115.5061
3359.17	375.1266
3360.32	104.1988
3361.47	180.4601
3362.619	108.4798
3363.768	12.65568
3364.916	134.9086
3366.064	303.9844
3367.211	98.33817
3368.358	239.7454
3369.505	236.1567
3370.651	179.3003
3371.796	180.3609
3372.942	131.4143
3374.086	194.3888
3375.23	169.7496
3376.374	337.2489
3377.517	388.0717
3378.66	300.7695
3379.803	438.8011
3380.945	143.8212
3382.086	595.6612
3383.227	268.4142
3384.368	214.3202
3385.508	195.0391
3386.647	394.5011
3387.787	5.759468
3388.926	274.4295
3390.064	276.1505
3391.202	104.6944
3392.339	202.4829
3393.476	355.3969
3394.613	294.3905
3395.749	476.3918
3396.884	362.6634
3398.02	516.1826
3399.154	50.0585
3400.289	330.5297
3401.422	126.4822
3402.556	232.9377
3403.688	204.8182
3404.821	47.02766
3405.953	697.9233
3407.085	452.5293
3408.216	440.0794
3409.346	41.65951
3410.477	268.6052
3411.606	371.3046
3412.736	277.1438
3413.865	425.2514
3414.993	277.6064
3416.121	385.102
3417.249	140.6821
3418.376	346.3981
3419.502	536.9406
3420.628	240.6975
3421.754	335.4006
3422.88	283.3194
3424.004	357.879
3425.129	321.0027
3426.253	157.7213
3427.376	286.2851
3428.499	163.6041
3429.622	288.5282
3430.744	374.4303
3431.866	398.9369
3432.987	239.4486
3434.108	144.7024
3435.228	168.9233
3436.348	97.54915
3437.468	154.8182
3438.587	461.7997
3439.705	377.0173
3440.823	608.6179
3441.941	215.4116
3443.058	227.7908
3444.175	90.41585
3445.292	141.9786
3446.407	236.7124
3447.523	426.0368
3448.638	443.1249
3449.752	467.9705
3450.867	350.3503
3451.98	202.2813
3453.094	312.0877
3454.206	315.6547
3455.319	0.890242
3456.431	222.8916
3457.542	182.7231
3458.653	204.9254
3459.764	236.0806
3460.874	583.1103
3461.984	313.006
3463.093	75.02576
3464.202	300.1662
3465.31	150.8025
3466.418	118.0177
3467.525	444.5603
3468.632	221.8875
3469.739	423.237
3470.845	151.9542
3471.951	138.6982
3473.056	277.1741
3474.161	103.4837
3475.265	206.7091
3476.369	120.6356
3477.473	254.1432
3478.576	526.7543
3479.678	180.5851
3480.781	358.4622
3481.882	314.4004
3482.984	363.0089
3484.084	479.9308
3485.185	3.644513
3486.285	293.9766
3487.384	156.6014
3488.483	58.86517
3489.582	171.9766
3490.68	204.0884
3491.778	175.0952
3492.875	27.45814
3493.972	258.8272
3495.069	120.0184
3496.165	111.3908
3497.26	238.8957
3498.355	19.52619
3499.45	393.7972
3500.544	74.38531
3501.638	204.9165
3502.731	152.923
3503.824	245.376
3504.917	225.9221
3506.009	201.4671
3507.1	191.6591
3508.192	395.7618
3509.282	294.5009
3510.373	76.55709
3511.462	180.2693
3512.552	231.184
3513.641	78.09287
3514.729	72.43327
3515.817	124.7121
3516.905	125.8856
3517.992	418.6376
3519.079	164.9572
3520.165	297.0072
3521.251	238.4066
3522.337	131.4955
3523.422	214.3523
3524.506	413.1135
3525.591	26.21483
3526.674	168.1993
3527.758	295.0951
3528.84	319.0781
3529.923	237.9832
3531.005	343.3177
3532.086	194.7086
3533.167	290.8514
3534.248	95.71018
3535.328	399.6594
3536.408	92.57175
3537.487	324.0698
3538.566	74.94382
3539.645	163.2817
3540.723	20.04515
3541.8	58.13893
3542.878	291.6117
3543.954	415.9289
3545.031	196.1161
3546.106	468.701
3547.182	226.3858
3548.257	61.27896
3549.332	177.5628
3550.406	327.2691
3551.479	403.4303
3552.552	7.347859
3553.625	124.9171
3554.698	69.33027
3555.77	297.9135
3556.841	546.702
3557.912	287.0341
3558.983	289.633
3560.053	284.5813
3561.123	382.2507
3562.192	418.6772
3563.261	387.5237
3564.33	346.2955
3565.398	470.6657
3566.465	120.4007
3567.533	371.8537
3568.599	266.6278
3569.666	377.1203
3570.732	37.14021
3571.797	26.44966
3572.862	429.1161
3573.927	273.0147
3574.991	2.253813
3576.054	448.602
3577.118	445.7834
3578.181	420.6038
3579.243	233.057
3580.305	380.0902
3581.367	104.9392
3582.428	299.7537
3583.489	274.9075
3584.549	98.06245
3585.609	252.8743
3586.668	267.9862
3587.727	388.9376
3588.786	347.8011
3589.844	18.16996
3590.901	301.817
3591.959	232.4995
3593.016	60.44223
3594.072	21.66049
3595.128	260.9448
3596.183	299.803
3597.239	108.1638
3598.293	404.5981
3599.347	304.8085
3600.401	8.277981
3601.455	51.09007
3602.508	137.6458
3603.56	149.1861
3604.612	110.235
3605.664	0.615905
3606.715	158.6936
3607.766	175.9341
3608.816	19.3261
3609.866	142.6763
3610.916	115.5238
3611.965	198.9838
3613.014	77.56098
3614.062	85.40897
3615.11	291.201
3616.157	292.2405
3617.204	287.8285
3618.251	37.76877
3619.297	44.08168
3620.342	226.883
3621.388	84.636
3622.432	143.9698
3623.477	294.143
3624.521	34.60732
3625.564	34.27966
3626.607	37.32936
3627.65	204.775
3628.692	320.0274
3629.734	377.8021
3630.776	246.6566
3631.817	141.0491
3632.857	415.5716
3633.897	173.2081
3634.937	154.5902
3635.976	118.9435
3637.015	129.4929
3638.054	42.20831
3639.092	124.6158
3640.129	257.2986
3641.166	315.288
3642.203	273.2397
3643.239	227.7639
3644.275	350.525
3645.311	43.67612
3646.346	213.9412
3647.38	438.1182
3648.415	257.6352
3649.448	91.22512
3650.481	18.06231
3651.514	330.1895
3652.547	398.1878
3653.579	141.0991
3654.611	32.02989
3655.642	142.6832
3656.673	134.1573
3657.703	73.56222
3658.733	482.0572
3659.762	118.9095
3660.792	500.5003
3661.82	392.2671
3662.848	308.2993
3663.876	291.4604
3664.904	220.5437
3665.93	385.3239
3666.957	145.6474
3667.983	457.9707
3669.009	106.6547
3670.034	291.0722
3671.059	164.2781
3672.083	438.6831
3673.107	334.9152
3674.131	292.4616
3675.154	132.1874
3676.177	16.3342
3677.199	251.4935
3678.221	114.6474
3679.243	25.62784
3680.264	45.68527
3681.284	347.7094
3682.304	167.5685
3683.324	111.7553
3684.344	292.7203
3685.363	649.264
3686.381	390.0056
3687.399	116.4797
3688.417	104.1269
3689.434	299.4042
3690.451	453.4389
3691.468	367.3062
3692.483	593.9508
3693.499	450.3218
3694.514	378.5286
3695.529	126.4748
3696.543	287.5807
3697.557	233.9341
3698.571	377.7234
3699.584	519.2432
3700.596	528.4211
3701.609	129.712
3702.62	126.1547
3703.632	88.48678
3704.643	489.0349
3705.653	170.851
3706.664	197.5059
3707.673	25.01722
3708.682	253.9576
3709.691	51.88076
3710.7	586.5779
3711.708	233.6338
3712.715	560.8331
3713.723	454.9112
3714.729	0.696487
3715.736	404.3217
3716.742	373.6312
3717.747	308.6705
3718.752	331.4709
3719.757	416.5477
3720.761	256.12
3721.765	265.1778
3722.769	484.406
3723.772	9.01766
3724.774	208.3065
3725.776	327.9348
3726.778	14.50617
3727.78	143.603
3728.781	354.4834
3729.781	262.5321
3730.781	385.9075
3731.781	248.8
3732.78	82.17936
3733.779	337.5986
3734.777	448.6575
3735.775	616.9316
3736.773	412.3445
3737.77	173.8863
3738.767	116.7743
3739.763	272.4084
3740.759	369.7848
3741.755	284.9831
3742.75	384.7722
3743.745	403.3517
3744.739	117.0469
3745.733	568.9676
3746.726	463.4359
3747.719	173.7577
3748.712	74.75177
3749.704	483.3402
3750.696	199.7316
3751.687	475.9256
3752.678	466.4508
3753.669	267.3691
3754.659	264.9082
3755.648	603.3713
3756.638	357.6451
3757.627	541.6822
3758.615	325.0648
3759.603	476.7059
3760.591	496.6195
3761.578	266.3719
3762.565	423.6406
3763.551	226.916
3764.537	347.7453
3765.523	436.6969
3766.508	616.3657
3767.493	468.4622
3768.477	304.5393
3769.461	672.3821
3770.445	472.0373
3771.428	438.8188
3772.41	138.7423
3773.393	129.7231
3774.375	336.4899
3775.356	111.6761
3776.337	181.3087
3777.318	355.8928
3778.298	525.8176
3779.278	540.393
3780.257	459.4234
3781.236	557.1768
3782.215	132.6248
3783.193	554.8076
3784.17	453.5838
3785.148	483.7879
3786.125	515.6152
3787.101	222.3862
3788.077	326.0082
3789.053	372.0435
3790.028	286.5272
3791.003	387.9358
3791.978	526.4616
3792.952	456.6035
3793.925	482.5771
3794.899	338.7307
3795.871	190.105
3796.844	100.1302
3797.816	312.8182
3798.787	376.9614
3799.759	550.0269
3800.729	182.1766
3801.7	148.1956
3802.67	351.9297
3803.639	374.9229
3804.608	375.8316
3805.577	286.3568
3806.545	268.1541
3807.513	364.9335
3808.481	467.9213
3809.448	329.6426
3810.415	92.69331
3811.381	478.4536
3812.347	211.2298
3813.312	173.8809
3814.277	322.026
3815.242	282.3671
3816.206	205.1328
3817.17	417.4722
3818.133	230.918
3819.096	159.9711
3820.059	345.9717
3821.021	65.2153
3821.983	134.7309
3822.944	119.9645
3823.905	233.5576
3824.865	169.4392
3825.826	133.4393
3826.785	308.8817
3827.745	109.5643
3828.704	15.09229
3829.662	106.0231
3830.62	197.39
3831.578	218.3268
3832.535	168.3745
3833.492	39.98485
3834.449	251.7258
3835.405	369.5597
3836.36	20.51628
3837.316	302.4527
3838.271	80.03204
3839.225	45.27227
3840.179	141.3847
3841.133	121.8093
3842.086	65.25873
3843.039	277.5535
3843.991	41.08989
3844.943	164.0557
3845.895	236.1911
3846.846	467.232
3847.797	133.1856
3848.747	121.3616
3849.697	40.99683
3850.647	438.0894
3851.596	117.8891
3852.545	234.5758
3853.493	20.06579
3854.441	174.0248
3855.388	239.4014
3856.336	199.6083
3857.282	191.1415
3858.229	16.99745
3859.175	346.0345
3860.12	334.4522
3861.065	121.5458
3862.01	355.0606
3862.954	12.21624
3863.898	122.7983
3864.842	208.6931
3865.785	261.9519
3866.728	48.59014
3867.67	66.82485
3868.612	288.0043
3869.553	56.10112
3870.494	238.8689
3871.435	507.2173
3872.375	125.5265
3873.315	130.6196
3874.255	293.7774
3875.194	154.7907
3876.133	21.51945
3877.071	197.0945
3878.009	95.9649
3878.946	358.3309
3879.883	67.72372
3880.82	68.89945
3881.756	258.9996
3882.692	207.6815
3883.627	305.186
3884.562	106.4072
3885.497	460.3894
3886.431	193.0241
3887.365	111.0453
3888.299	183.5043
3889.232	98.62021
3890.164	197.3163
3891.097	214.1046
3892.029	213.4021
3892.96	321.8449
3893.891	431.3258
3894.822	263.4372
3895.752	429.8868
3896.682	429.4832
3897.611	555.5911
3898.54	223.5153
3899.469	554.992
3900.397	816.9634
3901.325	14.03832
3902.252	663.8098
3903.179	593.8618
3904.106	652.2642
3905.032	712.0876
3905.958	364.5527
3906.884	444.6666
3907.809	327.3602
3908.733	327.004
3909.657	581.999
3910.581	297.2824
3911.505	328.6479
3912.428	373.4086
3913.35	423.2141
3914.273	195.8066
3915.195	806.8032
3916.116	644.5436
3917.037	507.069
3917.958	674.679
3918.878	456.9807
3919.798	333.5004
3920.717	208.1478
3921.636	418.7233
3922.555	692.4105
3923.473	457.3726
3924.391	802.8538
3925.308	324.9119
3926.226	313.2321
3927.142	756.4637
3928.058	739.3688
3928.974	359.9713
3929.89	462.6447
3930.805	683.5509
3931.719	326.1378
3932.634	271.1374
3933.548	429.3323
3934.461	550.8176
3935.374	210.9023
3936.287	639.6479
3937.199	767.4319
3938.111	883.3016
3939.023	919.6948
3939.934	772.2693
3940.844	701.5747
3941.755	544.5971
3942.665	452.7631
3943.574	419.3471
3944.483	888.3835
3945.392	988.6571
3946.3	714.1716
3947.208	604.6302
3948.116	476.8238
3949.023	942.8014
3949.93	995.6949
3950.836	819.1785
3951.742	687.8864
3952.648	1085.41
3953.553	585.8628
3954.458	702.1287
3955.362	872.9839
3956.266	1046.653
3957.169	809.941
3958.073	959.2073
3958.976	752.9039
3959.878	516.049
3960.78	1056.361
3961.681	850.7309
3962.583	1040.776
3963.484	752.0436
3964.384	1413.457
3965.284	846.0118
3966.184	1308.78
3967.083	956.4715
3967.982	1318.218
3968.88	971.6166
3969.778	1584.779
3970.676	985.1346
3971.573	1257.135
3972.47	1254.675
3973.366	827.0176
3974.263	1001.845
3975.158	1316.845
3976.054	967.5851
3976.948	981.3485
3977.843	872.4337
3978.737	1000.926
3979.631	1439.716
3980.524	1220.442
3981.417	811.342
3982.31	1431.957
3983.202	935.6851
3984.094	1080.778
3984.985	881.8624
3985.876	1010.325
3986.767	1362.195
3987.657	1505.587
3988.547	1063.462
3989.436	1293.103
3990.325	1379.956
3991.214	1077.918
3992.102	1246.294
3992.99	1135.273
3993.877	1289.906
3994.764	929.9906
3995.651	768.1644
3996.537	836.2725
3997.423	1217.62
3998.309	853.9365
3999.194	735.8126
4000.079	625.0355
4000.963	1042.595
4001.847	912.5999
4002.73	928.5584
4003.614	763.3666
4004.496	694.8044
4005.379	775.5902
4006.261	846.162
4007.142	1012.444
4008.023	595.3292
4008.904	694.9492
4009.785	309.1745
4010.665	728.3688
4011.544	290.417
4012.424	447.8642
4013.302	536.0019
4014.181	475.1224
4015.059	395.5069
4015.937	832.5632
4016.814	710.9474
4017.691	389.9326
4018.567	80.275
4019.444	783.8292
4020.319	629.134
4021.195	138.5912
4022.07	284.8415
4022.944	701.0504
4023.818	506.3151
4024.692	146.9481
4025.566	451.7377
4026.439	361.1423
4027.311	389.8912
4028.184	188.9487
4029.055	91.14527
4029.927	208.2588
4030.798	130.5468
4031.669	620.0625
4032.539	465.0268
4033.409	367.8467
4034.278	306.4139
4035.147	146.9112
4036.016	340.725
4036.885	490.6959
4037.753	27.58983
4038.62	557.0205
4039.488	57.89568
4040.354	640.814
4041.221	285.8507
4042.087	673.7177
4042.952	53.74763
4043.818	169.0178
4044.683	0.00E+00
