   127.7134     ,  0.0000000E+00
   130.0706     ,   33.44482    
   132.4268     ,   48.43567    
   134.7822     ,   16.27197    
   137.1367     ,   40.31581    
   139.4903     ,   7.687653    
   141.8430     ,   45.49373    
   144.1949     ,   199.1817    
   146.5458     ,   206.7497    
   148.8959     ,   500.3133    
   151.2451     ,   518.5292    
   153.5934     ,   795.8306    
   155.9408     ,   1063.073    
   158.2874     ,   1358.211    
   160.6330     ,   1954.817    
   162.9778     ,   2551.991    
   165.3217     ,   4055.849    
   167.6647     ,   6019.281    
   170.0068     ,   8499.291    
   172.3481     ,   10905.73    
   174.6884     ,   12379.52    
   177.0279     ,   12131.60    
   179.3666     ,   10851.07    
   181.7043     ,   8059.249    
   184.0412     ,   5385.060    
   186.3771     ,   3045.776    
   188.7122     ,   1741.204    
   191.0465     ,   958.1077    
   193.3798     ,   561.7704    
   195.7123     ,   330.4283    
   198.0439     ,   284.8869    
   200.3746     ,   140.5592    
   202.7045     ,   63.68526    
   205.0335     ,   71.17149    
   207.3616     ,   59.70642    
   209.6888     ,   11.54660    
   212.0151     ,   27.92514    
   214.3406     ,   59.33318    
   216.6652     ,   151.6860    
   218.9890     ,   199.6172    
   221.3118     ,   174.3678    
   223.6338     ,   103.0619    
   225.9549     ,   188.9858    
   228.2752     ,   214.9697    
   230.5946     ,   285.7335    
   232.9131     ,   163.8064    
   235.2307     ,   268.3103    
   237.5475     ,   170.9834    
   239.8634     ,   123.3653    
   242.1784     ,   190.1839    
   244.4926     ,   172.1886    
   246.8059     ,   190.6380    
   249.1183     ,   139.6065    
   251.4299     ,   26.99120    
   253.7406     ,   289.4503    
   256.0504     ,   423.0269    
   258.3594     ,   380.6265    
   260.6675     ,   347.5765    
   262.9747     ,   499.1938    
   265.2811     ,   840.4971    
   267.5866     ,   1009.554    
   269.8912     ,   945.9502    
   272.1950     ,   1144.710    
   274.4979     ,   1668.834    
   276.8000     ,   2039.048    
   279.1012     ,   2411.034    
   281.4015     ,   2990.961    
   283.7009     ,   3720.639    
   285.9995     ,   5037.892    
   288.2973     ,   6895.689    
   290.5941     ,   9320.876    
   292.8902     ,   12333.25    
   295.1853     ,   15334.37    
   297.4796     ,   17284.37    
   299.7731     ,   17627.85    
   302.0656     ,   16217.39    
   304.3574     ,   13570.28    
   306.6482     ,   10217.82    
   308.9382     ,   7181.234    
   311.2274     ,   4889.620    
   313.5157     ,   3547.567    
   315.8031     ,   2563.132    
   318.0897     ,   1854.088    
   320.3754     ,   1548.094    
   322.6603     ,   1316.897    
   324.9443     ,   1100.695    
   327.2274     ,   1030.760    
   329.5097     ,   968.2451    
   331.7912     ,   1125.181    
   334.0718     ,   1065.531    
   336.3515     ,   1132.550    
   338.6304     ,   1065.504    
   340.9084     ,   857.1467    
   343.1856     ,   725.0144    
   345.4619     ,   556.5737    
   347.7374     ,   485.5108    
   350.0120     ,   306.2036    
   352.2858     ,   191.2383    
   354.5587     ,   182.7627    
   356.8308     ,   193.3844    
   359.1020     ,   123.7946    
   361.3724     ,   73.59314    
   363.6419     ,   72.58161    
   365.9106     ,   136.4777    
   368.1784     ,   5.419991    
   370.4454     ,   27.84415    
   372.7115     ,   219.8192    
   374.9768     ,   205.8678    
   377.2412     ,   53.51807    
   379.5048     ,   128.5762    
   381.7676     ,   122.0154    
   384.0295     ,   182.0242    
   386.2905     ,   78.46108    
   388.5507     ,   42.07283    
   390.8101     ,   122.6784    
   393.0686     ,   226.0741    
   395.3263     ,   127.0126    
   397.5831     ,   119.6662    
   399.8391     ,   180.6040    
   402.0942     ,   102.5941    
   404.3485     ,   167.6318    
   406.6020     ,   49.34827    
   408.8546     ,   156.1755    
   411.1064     ,   152.0317    
   413.3573     ,   222.0725    
   415.6074     ,   116.3651    
   417.8566     ,   295.9663    
   420.1050     ,   141.8136    
   422.3526     ,   272.6067    
   424.5993     ,   135.1179    
   426.8452     ,   124.5445    
   429.0903     ,   113.1980    
   431.3345     ,   130.5211    
   433.5779     ,   1.801533    
   435.8204     ,   111.3309    
   438.0621     ,   57.02301    
   440.3029     ,   13.75376    
   442.5430     ,   1.923546    
   444.7822     ,   25.71719    
   447.0205     ,   15.51068    
   449.2580     ,   3.603306    
   451.4947     ,   60.75113    
   453.7305     ,   76.24757    
   455.9655     ,   140.1625    
   458.1997     ,   89.61377    
   460.4331     ,   20.95720    
   462.6656     ,   60.92414    
   464.8972     ,   55.29001    
   467.1281     ,   111.9867    
   469.3581     ,   67.95886    
   471.5873     ,   53.17407    
   473.8156     ,   103.1348    
   476.0431     ,   74.85580    
   478.2698     ,   218.1394    
   480.4957     ,   106.7705    
   482.7207     ,   90.36559    
   484.9449     ,   176.2075    
   487.1682     ,   115.4525    
   489.3907     ,   132.6982    
   491.6125     ,   26.02501    
   493.8333     ,   121.1285    
   496.0534     ,   63.94604    
   498.2726     ,   70.94162    
   500.4910     ,   133.4101    
   502.7085     ,   180.5547    
   504.9253     ,   241.2767    
   507.1412     ,   214.3430    
   509.3563     ,   90.32155    
   511.5705     ,   202.3414    
   513.7839     ,   205.2341    
   515.9965     ,   233.8541    
   518.2083     ,   243.5550    
   520.4193     ,   148.0612    
   522.6294     ,   163.3017    
   524.8387     ,   193.7752    
   527.0472     ,   59.30345    
   529.2548     ,   69.33521    
   531.4617     ,   44.79570    
   533.6677     ,   72.44015    
   535.8729     ,  0.8197710    
   538.0773     ,   46.19294    
   540.2808     ,   91.16231    
   542.4835     ,   82.33124    
   544.6854     ,   43.69748    
   546.8865     ,   60.38187    
   549.0868     ,   45.93601    
   551.2862     ,   129.6652    
   553.4849     ,   3.553775    
   555.6826     ,   267.7434    
   557.8796     ,   110.9669    
   560.0758     ,   151.4760    
   562.2711     ,   104.9078    
   564.4656     ,   65.54305    
   566.6594     ,   56.96527    
   568.8523     ,   130.5017    
   571.0444     ,   197.4588    
   573.2356     ,   58.95329    
   575.4261     ,   73.27520    
   577.6157     ,   46.67175    
   579.8045     ,   25.34046    
   581.9925     ,   141.4601    
   584.1797     ,   141.9144    
   586.3661     ,   60.78677    
   588.5516     ,   167.1040    
   590.7364     ,   6.161577    
   592.9203     ,   23.51126    
   595.1034     ,   20.83692    
   597.2857     ,   130.8728    
   599.4672     ,   97.13419    
   601.6479     ,   96.96921    
   603.8278     ,   7.129937    
   606.0068     ,   14.96039    
   608.1851     ,   87.03222    
   610.3625     ,   5.876207    
   612.5391     ,   54.95508    
   614.7149     ,   25.52994    
   616.8899     ,   106.8477    
   619.0641     ,   74.39462    
   621.2375     ,   171.2168    
   623.4100     ,   20.91840    
   625.5818     ,   12.11489    
   627.7528     ,   64.19312    
   629.9229     ,   119.7806    
   632.0923     ,   49.52631    
   634.2608     ,   25.45550    
   636.4285     ,   120.1121    
   638.5955     ,   199.5818    
   640.7616     ,   176.2236    
   642.9269     ,   207.4337    
   645.0914     ,   23.37597    
   647.2551     ,   122.5476    
   649.4180     ,   195.6869    
   651.5801     ,   89.68961    
   653.7414     ,   95.44916    
   655.9019     ,   114.1715    
   658.0615     ,   65.85899    
   660.2204     ,   124.6308    
   662.3785     ,   73.19588    
   664.5358     ,   78.48936    
   666.6922     ,   134.7598    
   668.8479     ,   193.2304    
   671.0027     ,   180.8805    
   673.1568     ,   88.22634    
   675.3101     ,   207.7749    
   677.4625     ,   211.1250    
   679.6142     ,   21.65524    
   681.7651     ,   58.78853    
   683.9151     ,   152.0617    
   686.0644     ,   209.6399    
   688.2128     ,   100.5849    
   690.3605     ,   132.2273    
   692.5074     ,   170.1107    
   694.6534     ,   320.3824    
   696.7987     ,   318.3724    
   698.9432     ,   453.8188    
   701.0869     ,   312.1977    
   703.2297     ,   619.0511    
   705.3718     ,   718.3749    
   707.5131     ,   788.4352    
   709.6536     ,   1097.562    
   711.7933     ,   1409.041    
   713.9323     ,   1723.674    
   716.0703     ,   2292.821    
   718.2076     ,   2661.510    
   720.3442     ,   3186.544    
   722.4799     ,   3204.473    
   724.6148     ,   3085.646    
   726.7490     ,   2655.885    
   728.8823     ,   2064.738    
   731.0149     ,   1628.920    
   733.1466     ,   1173.942    
   735.2776     ,   865.5756    
   737.4078     ,   609.3823    
   739.5372     ,   496.8698    
   741.6658     ,   444.4230    
   743.7936     ,   255.8542    
   745.9206     ,   363.6861    
   748.0468     ,   319.3261    
   750.1722     ,   267.2384    
   752.2969     ,   219.5063    
   754.4208     ,   300.5339    
   756.5438     ,   189.9890    
   758.6661     ,   113.2567    
   760.7876     ,   315.8931    
   762.9083     ,   183.4617    
   765.0283     ,   13.31379    
   767.1473     ,   167.1346    
   769.2657     ,   95.13446    
   771.3832     ,   24.77410    
   773.5001     ,   160.7687    
   775.6160     ,   89.79857    
   777.7313     ,   124.9067    
   779.8456     ,   115.8524    
   781.9593     ,   25.65641    
   784.0721     ,   177.0619    
   786.1842     ,   19.93853    
   788.2955     ,   70.66501    
   790.4060     ,   6.897004    
   792.5157     ,   82.56226    
   794.6246     ,   66.07307    
   796.7328     ,   87.62553    
   798.8401     ,   12.76245    
   800.9467     ,   130.3733    
   803.0526     ,   121.9552    
   805.1575     ,   37.84392    
   807.2618     ,   121.4309    
   809.3652     ,   124.4596    
   811.4680     ,   137.3595    
   813.5698     ,   208.2789    
   815.6710     ,   186.0802    
   817.7713     ,   63.66250    
   819.8708     ,   26.20648    
   821.9697     ,   137.4454    
   824.0676     ,   150.0384    
   826.1649     ,   112.2862    
   828.2613     ,   238.3368    
   830.3570     ,   201.9612    
   832.4519     ,   34.24076    
   834.5460     ,   232.6163    
   836.6393     ,   125.4882    
   838.7319     ,   81.22791    
   840.8237     ,   122.1773    
   842.9147     ,   109.0617    
   845.0049     ,   185.0419    
   847.0944     ,   171.1765    
   849.1831     ,   42.16475    
   851.2710     ,   193.1265    
   853.3582     ,   26.64981    
   855.4445     ,   115.6574    
   857.5302     ,   159.3019    
   859.6149     ,   32.28681    
   861.6990     ,   196.9045    
   863.7823     ,   16.61480    
   865.8647     ,   226.4324    
   867.9465     ,   107.8047    
   870.0275     ,   132.9030    
   872.1077     ,   263.6680    
   874.1871     ,   99.89044    
   876.2657     ,   341.0549    
   878.3436     ,   341.8201    
   880.4207     ,   365.4009    
   882.4970     ,   325.4950    
   884.5726     ,   224.5566    
   886.6474     ,   189.2332    
   888.7214     ,   51.27460    
   890.7947     ,   71.82600    
   892.8672     ,   186.8711    
   894.9389     ,   19.56696    
   897.0099     ,   68.55112    
   899.0801     ,   195.3489    
   901.1495     ,   59.06923    
   903.2181     ,   165.6857    
   905.2860     ,   117.8866    
   907.3531     ,   207.2144    
   909.4196     ,   215.2736    
   911.4851     ,   165.3424    
   913.5499     ,   44.35997    
   915.6140     ,   68.30056    
   917.6773     ,   93.46349    
   919.7399     ,   166.5212    
   921.8016     ,   173.8512    
   923.8626     ,   91.82675    
   925.9229     ,   74.22779    
   927.9824     ,   90.76331    
   930.0411     ,   163.8911    
   932.0991     ,   37.63083    
   934.1562     ,   286.1986    
   936.2126     ,   146.6565    
   938.2683     ,   87.71123    
   940.3232     ,   33.02261    
   942.3774     ,   117.9398    
   944.4308     ,   27.33055    
   946.4834     ,   18.23584    
   948.5353     ,   7.088825    
   950.5864     ,   87.94330    
   952.6368     ,   133.1299    
   954.6863     ,   9.183208    
   956.7352     ,   107.9859    
   958.7833     ,   32.71059    
   960.8306     ,   48.69464    
   962.8771     ,   50.02090    
   964.9229     ,   43.77508    
   966.9680     ,   55.60741    
   969.0123     ,   18.91550    
   971.0558     ,   72.62749    
   973.0986     ,   186.8048    
   975.1406     ,   5.476925    
   977.1819     ,   131.9363    
   979.2224     ,   109.1871    
   981.2621     ,   93.76615    
   983.3011     ,   54.63464    
   985.3394     ,   4.224041    
   987.3768     ,   2.678261    
   989.4136     ,   10.70359    
   991.4496     ,   259.7052    
   993.4848     ,   228.0091    
   995.5193     ,   74.77660    
   997.5530     ,   51.55791    
   999.5860     ,   189.3304    
   1001.618     ,   85.95692    
   1003.650     ,   214.3833    
   1005.680     ,   195.2812    
   1007.710     ,   43.80068    
   1009.740     ,   452.8776    
   1011.768     ,   209.3019    
   1013.796     ,   203.7658    
   1015.823     ,   217.3594    
   1017.849     ,   233.7349    
   1019.874     ,   333.4793    
   1021.899     ,   205.5343    
   1023.923     ,   326.1361    
   1025.946     ,   269.2830    
   1027.969     ,   401.9689    
   1029.990     ,   264.1016    
   1032.011     ,   441.1159    
   1034.032     ,   155.6711    
   1036.051     ,   359.5448    
   1038.070     ,   437.9188    
   1040.088     ,   503.4284    
   1042.105     ,   417.0768    
   1044.122     ,   280.6866    
   1046.137     ,   429.0192    
   1048.152     ,   485.3344    
   1050.167     ,   385.4534    
   1052.180     ,   659.9160    
   1054.193     ,   605.6810    
   1056.205     ,   657.8304    
   1058.216     ,   714.1517    
   1060.227     ,   800.9442    
   1062.237     ,   999.7795    
   1064.246     ,   1190.488    
   1066.254     ,   1417.153    
   1068.261     ,   1535.304    
   1070.268     ,   1847.927    
   1072.274     ,   2222.251    
   1074.280     ,   2852.251    
   1076.284     ,   3464.071    
   1078.288     ,   4098.488    
   1080.291     ,   5305.681    
   1082.294     ,   7014.869    
   1084.295     ,   9448.710    
   1086.296     ,   12968.47    
   1088.296     ,   17420.67    
   1090.296     ,   22110.82    
   1092.294     ,   26420.33    
   1094.292     ,   28559.04    
   1096.290     ,   28710.69    
   1098.286     ,   25673.38    
   1100.282     ,   20585.78    
   1102.277     ,   14652.94    
   1104.271     ,   9549.616    
   1106.265     ,   5813.056    
   1108.257     ,   3657.719    
   1110.249     ,   2252.987    
   1112.241     ,   1652.207    
   1114.231     ,   1184.382    
   1116.221     ,   1063.824    
   1118.210     ,   783.0156    
   1120.199     ,   806.8015    
   1122.186     ,   577.9269    
   1124.173     ,   521.6405    
   1126.159     ,   432.5658    
   1128.145     ,   384.3590    
   1130.130     ,   444.1385    
   1132.113     ,   553.6199    
   1134.097     ,   497.3470    
   1136.079     ,   488.9223    
   1138.061     ,   260.6700    
   1140.042     ,   212.6876    
   1142.022     ,   259.7761    
   1144.002     ,   277.8253    
   1145.981     ,   196.7677    
   1147.959     ,   284.3117    
   1149.936     ,   84.14518    
   1151.913     ,   151.1920    
   1153.889     ,   247.3086    
   1155.864     ,   134.2740    
   1157.838     ,   29.22507    
   1159.812     ,   141.1842    
   1161.785     ,   71.66696    
   1163.757     ,   41.03615    
   1165.729     ,   1.353569    
   1167.700     ,   169.3696    
   1169.670     ,   20.93810    
   1171.639     ,   62.50043    
   1173.608     ,   65.79115    
   1175.576     ,   121.7504    
   1177.543     ,   161.1053    
   1179.510     ,   119.2570    
   1181.475     ,   143.8138    
   1183.440     ,   12.99277    
   1185.405     ,   40.85676    
   1187.368     ,   60.27145    
   1189.331     ,   243.7340    
   1191.293     ,   221.2429    
   1193.254     ,   121.5374    
   1195.215     ,   77.39229    
   1197.175     ,   148.2204    
   1199.134     ,   171.7098    
   1201.093     ,   75.49469    
   1203.050     ,   122.7462    
   1205.007     ,   236.4355    
   1206.964     ,   43.46081    
   1208.919     ,   230.5793    
   1210.874     ,   209.1375    
   1212.828     ,   257.6376    
   1214.782     ,   111.4513    
   1216.735     ,   51.34505    
   1218.687     ,   94.45267    
   1220.638     ,   286.1512    
   1222.588     ,   229.1138    
   1224.538     ,   28.62900    
   1226.487     ,   118.0881    
   1228.436     ,   242.3949    
   1230.383     ,   329.8741    
   1232.330     ,   172.6497    
   1234.277     ,   387.1909    
   1236.222     ,   217.4975    
   1238.167     ,   141.9401    
   1240.111     ,   4.678368    
   1242.054     ,   118.9140    
   1243.997     ,   100.0445    
   1245.939     ,   269.7275    
   1247.880     ,   206.9333    
   1249.821     ,   146.4427    
   1251.760     ,   333.0496    
   1253.700     ,   40.54208    
   1255.638     ,   174.9937    
   1257.576     ,   108.4650    
   1259.512     ,   201.8855    
   1261.449     ,   11.58981    
   1263.384     ,   47.27532    
   1265.319     ,   84.48677    
   1267.253     ,   246.5757    
   1269.186     ,   172.3412    
   1271.119     ,   173.1060    
   1273.051     ,  0.6668400    
   1274.982     ,   46.94418    
   1276.913     ,   27.92596    
   1278.842     ,   130.9705    
   1280.771     ,   269.0881    
   1282.700     ,   26.63153    
   1284.628     ,   75.27283    
   1286.555     ,   80.22256    
   1288.481     ,   119.4576    
   1290.406     ,   5.296783    
   1292.331     ,   129.7623    
   1294.255     ,   171.7612    
   1296.179     ,   71.78783    
   1298.101     ,   154.3839    
   1300.023     ,   72.98280    
   1301.945     ,   148.3094    
   1303.865     ,   147.8730    
   1305.785     ,   160.3211    
   1307.704     ,   129.5503    
   1309.623     ,   155.8951    
   1311.540     ,   365.4284    
   1313.457     ,   166.1733    
   1315.374     ,   268.7643    
   1317.289     ,   341.0876    
   1319.204     ,   412.7770    
   1321.118     ,   218.2052    
   1323.032     ,   335.9575    
   1324.945     ,   278.2510    
   1326.857     ,   390.9308    
   1328.768     ,   381.4405    
   1330.679     ,   393.5691    
   1332.589     ,   398.2610    
   1334.498     ,   334.1665    
   1336.406     ,   331.8487    
   1338.314     ,   373.9849    
   1340.221     ,   244.8181    
   1342.128     ,   120.3379    
   1344.034     ,   387.4161    
   1345.939     ,   305.5082    
   1347.843     ,   270.4521    
   1349.747     ,   362.3361    
   1351.650     ,   93.90771    
   1353.552     ,   270.5387    
   1355.453     ,   331.3898    
   1357.354     ,   266.7589    
   1359.254     ,   212.1835    
   1361.154     ,   269.9823    
   1363.052     ,   124.7785    
   1364.951     ,   234.5609    
   1366.848     ,   116.5375    
   1368.745     ,   76.61977    
   1370.640     ,   66.98373    
   1372.536     ,   109.8509    
   1374.430     ,   34.36867    
   1376.324     ,   1.361893    
   1378.217     ,   178.6155    
   1380.110     ,   1.751011    
   1382.001     ,   105.8780    
   1383.892     ,   152.5300    
   1385.783     ,   201.0350    
   1387.672     ,   4.517509    
   1389.561     ,   259.6598    
   1391.450     ,   24.33222    
   1393.337     ,   19.68104    
   1395.224     ,   37.43770    
   1397.110     ,   10.05647    
   1398.996     ,   49.63398    
   1400.880     ,   46.60275    
   1402.765     ,   4.899014    
   1404.648     ,   79.57664    
   1406.531     ,   282.4859    
   1408.413     ,   148.7451    
   1410.294     ,   145.4716    
   1412.175     ,   82.76509    
   1414.055     ,   173.3818    
   1415.934     ,   108.0003    
   1417.812     ,   186.3502    
   1419.690     ,   135.7066    
   1421.567     ,   329.4308    
   1423.444     ,   322.5933    
   1425.320     ,   366.7354    
   1427.195     ,   331.8297    
   1429.069     ,   623.8585    
   1430.943     ,   699.2808    
   1432.816     ,   845.9859    
   1434.688     ,   1229.747    
   1436.560     ,   1295.451    
   1438.431     ,   1219.810    
   1440.301     ,   1410.473    
   1442.171     ,   1342.894    
   1444.039     ,   1322.055    
   1445.907     ,   954.7935    
   1447.775     ,   924.4515    
   1449.642     ,   751.0218    
   1451.508     ,   626.4862    
   1453.373     ,   469.1177    
   1455.238     ,   371.9661    
   1457.102     ,   549.6033    
   1458.966     ,   385.7253    
   1460.828     ,   262.2989    
   1462.690     ,   411.0066    
   1464.552     ,   458.0979    
   1466.412     ,   363.2211    
   1468.272     ,   328.1022    
   1470.131     ,   281.0023    
   1471.990     ,   253.7293    
   1473.848     ,   425.4615    
   1475.705     ,   397.5428    
   1477.562     ,   433.2110    
   1479.417     ,   166.4914    
   1481.273     ,   169.8657    
   1483.127     ,   388.1960    
   1484.981     ,   305.2937    
   1486.834     ,   265.0838    
   1488.686     ,   144.5725    
   1490.538     ,   266.3661    
   1492.389     ,   231.5750    
   1494.240     ,   233.1091    
   1496.089     ,   112.2991    
   1497.938     ,   225.9951    
   1499.786     ,   45.16019    
   1501.634     ,   52.31978    
   1503.481     ,   271.5352    
   1505.327     ,   25.73096    
   1507.173     ,   37.48177    
   1509.018     ,   25.56571    
   1510.862     ,   236.4308    
   1512.706     ,   101.1563    
   1514.549     ,   206.7114    
   1516.391     ,   59.42085    
   1518.232     ,   2.359974    
   1520.073     ,   117.6103    
   1521.913     ,   48.69543    
   1523.753     ,   29.94226    
   1525.592     ,   136.0991    
   1527.430     ,   121.1933    
   1529.267     ,   234.9796    
   1531.104     ,   235.3036    
   1532.940     ,   175.9585    
   1534.776     ,   141.2404    
   1536.610     ,   110.6277    
   1538.445     ,   112.1224    
   1540.278     ,   181.0680    
   1542.111     ,   23.63774    
   1543.943     ,   138.3758    
   1545.774     ,   236.8310    
   1547.605     ,   223.1721    
   1549.435     ,   34.79345    
   1551.264     ,   176.5801    
   1553.093     ,   330.6878    
   1554.921     ,   319.7319    
   1556.748     ,   231.1059    
   1558.575     ,   337.8212    
   1560.401     ,   223.7107    
   1562.226     ,   146.9963    
   1564.051     ,   345.1667    
   1565.875     ,   235.1861    
   1567.698     ,   360.5395    
   1569.521     ,   488.5394    
   1571.343     ,   338.6952    
   1573.164     ,   355.6620    
   1574.985     ,   301.9453    
   1576.805     ,   180.1849    
   1578.624     ,   357.5199    
   1580.443     ,   239.8052    
   1582.260     ,   286.1252    
   1584.078     ,   312.6745    
   1585.894     ,   316.3772    
   1587.710     ,   103.3446    
   1589.526     ,   146.3621    
   1591.340     ,   351.4401    
   1593.154     ,   136.6653    
   1594.967     ,   230.7130    
   1596.780     ,   82.26918    
   1598.592     ,   379.1365    
   1600.403     ,   273.4016    
   1602.214     ,   153.9693    
   1604.024     ,   135.7439    
   1605.833     ,   357.4277    
   1607.641     ,   73.02007    
   1609.449     ,   161.5033    
   1611.257     ,   46.29621    
   1613.063     ,   106.7358    
   1614.869     ,   253.4574    
   1616.674     ,   85.85178    
   1618.479     ,   69.88512    
   1620.283     ,   8.473148    
   1622.086     ,   136.2806    
   1623.889     ,   122.7303    
   1625.691     ,   48.06053    
   1627.492     ,   228.7684    
   1629.293     ,   64.83456    
   1631.093     ,   208.8712    
   1632.892     ,   231.7716    
   1634.691     ,   10.01392    
   1636.489     ,   12.19150    
   1638.286     ,   41.32188    
   1640.082     ,   210.1951    
   1641.878     ,   192.0963    
   1643.674     ,   1.041435    
   1645.468     ,   211.1623    
   1647.262     ,   16.84340    
   1649.056     ,   205.4155    
   1650.848     ,   66.62241    
   1652.640     ,   171.3303    
   1654.432     ,   91.51334    
   1656.222     ,   147.9375    
   1658.012     ,   54.17529    
   1659.802     ,   241.3749    
   1661.591     ,   156.5160    
   1663.379     ,   483.7640    
   1665.166     ,   6.464317    
   1666.953     ,   109.4762    
   1668.739     ,   184.4172    
   1670.524     ,   330.3485    
   1672.309     ,   154.0296    
   1674.093     ,   322.7002    
   1675.877     ,   329.4520    
   1677.659     ,   329.7157    
   1679.442     ,   410.9038    
   1681.223     ,   162.6619    
   1683.004     ,   351.5957    
   1684.784     ,   263.3127    
   1686.563     ,   254.7817    
   1688.342     ,   393.6152    
   1690.120     ,   278.5467    
   1691.898     ,   359.6732    
   1693.675     ,   215.3251    
   1695.451     ,   155.0810    
   1697.227     ,   125.3287    
   1699.002     ,   191.0722    
   1700.776     ,   331.9661    
   1702.550     ,   403.6288    
   1704.323     ,   430.9915    
   1706.095     ,   385.8466    
   1707.867     ,   241.7326    
   1709.638     ,   262.0056    
   1711.408     ,   269.7062    
   1713.178     ,   142.1977    
   1714.947     ,   143.1983    
   1716.715     ,   398.8578    
   1718.483     ,   323.3569    
   1720.250     ,   116.0623    
   1722.016     ,   114.8677    
   1723.782     ,   147.2760    
   1725.547     ,   99.06847    
   1727.312     ,   273.3774    
   1729.076     ,   201.3067    
   1730.839     ,   304.8817    
   1732.601     ,   42.08657    
   1734.363     ,   239.4776    
   1736.125     ,   190.6909    
   1737.885     ,   30.87912    
   1739.645     ,  0.8723560    
   1741.404     ,   194.8313    
   1743.163     ,   194.9806    
   1744.921     ,   462.6530    
   1746.678     ,   220.5503    
   1748.435     ,   573.2646    
   1750.191     ,   814.6561    
   1751.947     ,   673.7761    
   1753.702     ,   689.5789    
   1755.456     ,   950.7808    
   1757.209     ,   757.8743    
   1758.962     ,   770.3666    
   1760.714     ,   527.2276    
   1762.466     ,   575.7758    
   1764.217     ,   465.1276    
   1765.967     ,   383.1928    
   1767.716     ,   362.5492    
   1769.465     ,   242.7466    
   1771.214     ,   69.41036    
   1772.961     ,   345.7671    
   1774.708     ,   265.4641    
   1776.455     ,   164.2254    
   1778.201     ,   162.9877    
   1779.946     ,   112.9172    
   1781.690     ,   51.34132    
   1783.434     ,   33.34747    
   1785.177     ,   204.7157    
   1786.920     ,   156.4200    
   1788.661     ,   178.3124    
   1790.403     ,   147.5671    
   1792.143     ,   128.9744    
   1793.883     ,   4.847240    
   1795.623     ,   149.1831    
   1797.361     ,   178.7481    
   1799.099     ,   378.9741    
   1800.837     ,   84.29410    
   1802.574     ,   65.30258    
   1804.310     ,   183.9436    
   1806.045     ,   16.58710    
   1807.780     ,   326.1115    
   1809.514     ,   188.5968    
   1811.248     ,   211.8456    
   1812.981     ,   217.2181    
   1814.713     ,   112.0423    
   1816.445     ,   68.74691    
   1818.176     ,   160.1040    
   1819.906     ,   16.49834    
   1821.636     ,   203.1589    
   1823.365     ,   140.0266    
   1825.093     ,   247.5081    
   1826.821     ,   147.1749    
   1828.548     ,   219.5838    
   1830.275     ,   24.73272    
   1832.001     ,   144.6878    
   1833.726     ,   43.48306    
   1835.451     ,   62.19064    
   1837.175     ,   167.1099    
   1838.898     ,   28.87492    
   1840.621     ,   48.01884    
   1842.343     ,   118.7518    
   1844.065     ,   93.96935    
   1845.785     ,   267.8438    
   1847.506     ,   69.76527    
   1849.225     ,   175.8701    
   1850.944     ,   52.75402    
   1852.662     ,   193.7579    
   1854.380     ,   15.91897    
   1856.097     ,   177.0867    
   1857.813     ,   72.85933    
   1859.529     ,   155.7357    
   1861.244     ,   152.1120    
   1862.959     ,   304.1163    
   1864.673     ,   89.49323    
   1866.386     ,   210.2847    
   1868.099     ,   47.44844    
   1869.811     ,   177.3965    
   1871.522     ,   13.85061    
   1873.233     ,   7.280151    
   1874.943     ,   207.1715    
   1876.652     ,   11.40130    
   1878.361     ,   38.18094    
   1880.069     ,   4.068640    
   1881.777     ,   220.8676    
   1883.484     ,   501.3592    
   1885.190     ,   90.22478    
   1886.896     ,   80.00915    
   1888.601     ,   128.8069    
   1890.305     ,   215.7359    
   1892.009     ,   12.39983    
   1893.712     ,   161.4613    
   1895.415     ,   206.1434    
   1897.117     ,   195.5473    
   1898.818     ,   69.99208    
   1900.519     ,   36.17735    
   1902.219     ,   227.9900    
   1903.918     ,   236.0124    
   1905.617     ,   285.0235    
   1907.315     ,   298.1162    
   1909.012     ,   9.137854    
   1910.709     ,   238.2906    
   1912.406     ,   143.0502    
   1914.101     ,   108.5520    
   1915.796     ,   60.51854    
   1917.491     ,   173.3050    
   1919.184     ,   159.0525    
   1920.878     ,   86.10957    
   1922.570     ,   299.8853    
   1924.262     ,   85.47521    
   1925.953     ,   24.60358    
   1927.644     ,   285.7996    
   1929.334     ,   11.09555    
   1931.023     ,   226.8165    
   1932.712     ,   77.85429    
   1934.400     ,   211.6425    
   1936.088     ,   155.7985    
   1937.775     ,   227.5826    
   1939.461     ,   237.8924    
   1941.147     ,   297.8200    
   1942.832     ,   333.8210    
   1944.516     ,   325.0519    
   1946.200     ,   170.2405    
   1947.883     ,   115.2828    
   1949.566     ,   101.3059    
   1951.248     ,   333.2578    
   1952.929     ,   358.9232    
   1954.610     ,   236.1658    
   1956.290     ,   210.1981    
   1957.969     ,   250.0897    
   1959.648     ,   140.5195    
   1961.326     ,   57.97397    
   1963.004     ,   22.77502    
   1964.681     ,   86.50168    
   1966.357     ,   62.38545    
   1968.033     ,   70.49142    
   1969.708     ,   154.0699    
   1971.383     ,   157.1331    
   1973.057     ,   163.7046    
   1974.730     ,   135.0195    
   1976.403     ,   103.3048    
   1978.075     ,   481.7481    
   1979.746     ,   51.15128    
   1981.417     ,   334.7976    
   1983.087     ,   28.09002    
   1984.757     ,   464.2690    
   1986.426     ,   133.9240    
   1988.094     ,   169.6076    
   1989.762     ,   104.3527    
   1991.429     ,   324.6696    
   1993.095     ,   216.4750    
   1994.761     ,   404.7298    
   1996.426     ,   116.2143    
   1998.091     ,   318.8361    
   1999.755     ,   235.8056    
   2001.419     ,   210.3102    
   2003.081     ,   267.7703    
   2004.744     ,   340.3016    
   2006.405     ,   205.4629    
   2008.066     ,   513.5707    
   2009.727     ,   327.1738    
   2011.386     ,   373.9586    
   2013.045     ,   257.8196    
   2014.704     ,   236.9728    
   2016.362     ,   186.1344    
   2018.019     ,   481.6698    
   2019.676     ,   165.6150    
   2021.332     ,   418.6395    
   2022.987     ,   367.2916    
   2024.642     ,   538.9733    
   2026.297     ,   324.9128    
   2027.950     ,   569.1632    
   2029.603     ,   521.4811    
   2031.255     ,   365.1760    
   2032.907     ,   168.9450    
   2034.559     ,   304.9811    
   2036.209     ,   262.6962    
   2037.859     ,   113.3649    
   2039.508     ,   144.6022    
   2041.157     ,   341.7236    
   2042.805     ,   290.4725    
   2044.453     ,   408.0636    
   2046.100     ,   176.4652    
   2047.746     ,   366.5720    
   2049.392     ,   455.2385    
   2051.037     ,   255.9236    
   2052.681     ,   72.84177    
   2054.325     ,   278.2636    
   2055.969     ,   103.7721    
   2057.611     ,   310.2601    
   2059.253     ,   5.521793    
   2060.895     ,   324.0925    
   2062.536     ,   152.4120    
   2064.176     ,   371.3253    
   2065.816     ,   50.44187    
   2067.455     ,   103.4628    
   2069.093     ,   97.18433    
   2070.731     ,   254.0189    
   2072.368     ,   241.7993    
   2074.005     ,   317.9991    
   2075.641     ,   5.068264    
   2077.276     ,   11.53782    
   2078.911     ,   47.71980    
   2080.545     ,   79.65122    
   2082.179     ,   48.14587    
   2083.812     ,   228.5819    
   2085.444     ,   10.77742    
   2087.076     ,   247.6474    
   2088.707     ,   20.17168    
   2090.338     ,   141.5545    
   2091.968     ,   3.658901    
   2093.597     ,   297.1238    
   2095.226     ,   326.8632    
   2096.854     ,   211.5609    
   2098.482     ,   192.1607    
   2100.109     ,   272.7919    
   2101.735     ,   15.00569    
   2103.361     ,   193.8401    
   2104.986     ,   371.9661    
   2106.611     ,   45.65911    
   2108.235     ,   410.9097    
   2109.858     ,   316.6122    
   2111.481     ,   278.7686    
   2113.103     ,   278.2671    
   2114.724     ,   441.5020    
   2116.345     ,   586.5490    
   2117.966     ,   232.5305    
   2119.586     ,   562.9501    
   2121.205     ,   476.0917    
   2122.823     ,   312.6426    
   2124.441     ,   425.3743    
   2126.059     ,   397.7376    
   2127.676     ,   735.5810    
   2129.292     ,   516.7331    
   2130.907     ,   473.5897    
   2132.522     ,   623.1271    
   2134.137     ,   530.8949    
   2135.750     ,   453.6394    
   2137.364     ,   465.2059    
   2138.976     ,   622.2805    
   2140.588     ,   507.3195    
   2142.200     ,   602.7612    
   2143.811     ,   593.5278    
   2145.421     ,   783.1468    
   2147.030     ,   603.1154    
   2148.639     ,   417.7731    
   2150.248     ,   610.2282    
   2151.856     ,   579.4855    
   2153.463     ,   669.2582    
   2155.070     ,   614.8984    
   2156.676     ,   333.0724    
   2158.281     ,   532.7368    
   2159.886     ,   325.6177    
   2161.490     ,   541.4385    
   2163.094     ,   437.7282    
   2164.697     ,   602.6187    
   2166.300     ,   483.8861    
   2167.901     ,   313.1082    
   2169.503     ,   253.8316    
   2171.104     ,   486.1120    
   2172.704     ,   177.1472    
   2174.303     ,   391.9307    
   2175.902     ,   510.6272    
   2177.500     ,   363.7971    
   2179.098     ,   249.3672    
   2180.695     ,   487.3899    
   2182.292     ,   53.74685    
   2183.888     ,   521.9853    
   2185.483     ,   223.8427    
   2187.078     ,   338.1613    
   2188.672     ,   447.2195    
   2190.266     ,   250.6570    
   2191.859     ,   283.7262    
   2193.451     ,   198.7892    
   2195.043     ,   262.5919    
   2196.635     ,   220.5395    
   2198.225     ,   130.6648    
   2199.815     ,   283.9865    
   2201.405     ,   243.3221    
   2202.994     ,   415.0747    
   2204.582     ,   35.68362    
   2206.170     ,   228.4463    
   2207.757     ,   40.89006    
   2209.344     ,   97.97525    
   2210.930     ,   481.8496    
   2212.515     ,   111.3169    
   2214.100     ,   243.4574    
   2215.684     ,   4.411842    
   2217.268     ,   294.0623    
   2218.851     ,   157.2371    
   2220.433     ,   52.51973    
   2222.015     ,   51.32912    
   2223.596     ,   121.1137    
   2225.177     ,   227.8488    
   2226.757     ,   175.2790    
   2228.337     ,   99.45561    
   2229.916     ,   105.5837    
   2231.494     ,   372.2734    
   2233.072     ,   132.5948    
   2234.649     ,   375.0068    
   2236.226     ,   310.4167    
   2237.802     ,   107.9863    
   2239.377     ,   37.97906    
   2240.952     ,   38.61439    
   2242.526     ,   198.1273    
   2244.100     ,   261.7154    
   2245.673     ,   459.2893    
   2247.246     ,   201.9960    
   2248.817     ,   48.26065    
   2250.389     ,   478.4707    
   2251.960     ,   465.4867    
   2253.530     ,   147.6994    
   2255.099     ,   218.3954    
   2256.668     ,   333.0726    
   2258.237     ,   227.5783    
   2259.805     ,   512.9323    
   2261.372     ,   425.1255    
   2262.939     ,   485.5610    
   2264.505     ,   420.9335    
   2266.071     ,   296.1586    
   2267.635     ,   520.9000    
   2269.200     ,   474.7561    
   2270.764     ,   372.7660    
   2272.327     ,   562.1239    
   2273.889     ,   358.3596    
   2275.452     ,   633.5936    
   2277.013     ,   85.77113    
   2278.574     ,   249.0704    
   2280.134     ,   350.4930    
   2281.694     ,   561.9011    
   2283.253     ,   149.7279    
   2284.812     ,   424.4973    
   2286.370     ,   396.9715    
   2287.927     ,   366.3670    
   2289.484     ,   76.27415    
   2291.041     ,   31.01108    
   2292.596     ,   121.4267    
   2294.151     ,   248.1410    
   2295.706     ,   2.490952    
   2297.260     ,   372.2154    
   2298.813     ,   152.0003    
   2300.366     ,   527.5540    
   2301.918     ,   134.0309    
   2303.470     ,   343.6355    
   2305.021     ,   444.6257    
   2306.572     ,   255.5997    
   2308.122     ,   410.2085    
   2309.671     ,   645.0412    
   2311.220     ,   256.3763    
   2312.768     ,   224.3172    
   2314.316     ,   216.1356    
   2315.863     ,   535.4852    
   2317.409     ,   125.2471    
   2318.955     ,   334.3413    
   2320.500     ,   323.0093    
   2322.045     ,   462.5181    
   2323.590     ,   68.32281    
   2325.133     ,   229.4371    
   2326.676     ,   165.7959    
   2328.219     ,   307.4128    
   2329.761     ,   377.6691    
   2331.302     ,   183.6079    
   2332.843     ,   215.0382    
   2334.383     ,   79.64713    
   2335.923     ,   213.3811    
   2337.462     ,   213.3044    
   2339.000     ,   169.7677    
   2340.538     ,   281.5858    
   2342.075     ,   87.95233    
   2343.612     ,   55.27324    
   2345.148     ,   264.9305    
   2346.684     ,   158.7981    
   2348.219     ,   109.9299    
   2349.754     ,   566.3671    
   2351.288     ,   246.3143    
   2352.821     ,   108.0131    
   2354.354     ,   121.5960    
   2355.886     ,   249.5634    
   2357.417     ,   153.9127    
   2358.949     ,   300.0432    
   2360.479     ,   235.9410    
   2362.009     ,   36.56277    
   2363.538     ,   331.3947    
   2365.067     ,   391.1496    
   2366.595     ,   131.2977    
   2368.123     ,   245.5886    
   2369.650     ,   482.7735    
   2371.177     ,   385.2297    
   2372.703     ,   51.06226    
   2374.228     ,   290.6185    
   2375.753     ,   162.4646    
   2377.277     ,   62.15100    
   2378.801     ,   329.2596    
   2380.324     ,   208.1099    
   2381.847     ,   202.1774    
   2383.369     ,   430.4838    
   2384.890     ,   85.65216    
   2386.411     ,   45.68198    
   2387.931     ,   272.6400    
   2389.451     ,   53.17237    
   2390.970     ,   394.2194    
   2392.489     ,   550.1445    
   2394.007     ,   391.6112    
   2395.524     ,   358.4363    
   2397.041     ,   130.2927    
   2398.558     ,   19.54906    
   2400.073     ,   62.83764    
   2401.589     ,   489.0769    
   2403.103     ,   240.2075    
   2404.617     ,   382.5317    
   2406.131     ,   378.2528    
   2407.644     ,   531.5370    
   2409.156     ,   384.9684    
   2410.668     ,   274.3503    
   2412.179     ,   174.6885    
   2413.690     ,   593.9011    
   2415.200     ,   350.4812    
   2416.710     ,   316.0438    
   2418.219     ,   156.2697    
   2419.728     ,   253.1213    
   2421.235     ,   388.0935    
   2422.743     ,   70.55441    
   2424.250     ,   253.2234    
   2425.756     ,   552.7787    
   2427.261     ,   315.4573    
   2428.767     ,   537.2948    
   2430.271     ,   290.7414    
   2431.775     ,   618.4286    
   2433.279     ,   266.0804    
   2434.781     ,   393.5128    
   2436.284     ,   6.199501    
   2437.785     ,   333.3257    
   2439.287     ,   159.3843    
   2440.787     ,   391.6375    
   2442.287     ,   36.93761    
   2443.787     ,   310.8177    
   2445.286     ,   423.4646    
   2446.784     ,   240.0289    
   2448.282     ,   99.06352    
   2449.780     ,   190.7278    
   2451.276     ,   23.57480    
   2452.772     ,   797.4645    
   2454.268     ,   543.8221    
   2455.763     ,   600.6007    
   2457.258     ,   99.12842    
   2458.751     ,   348.8110    
   2460.245     ,   363.4298    
   2461.738     ,   380.6725    
   2463.230     ,   566.2541    
   2464.722     ,   225.8958    
   2466.213     ,   311.8489    
   2467.703     ,   519.8950    
   2469.194     ,   102.1003    
   2470.683     ,   732.3835    
   2472.172     ,   351.3910    
   2473.660     ,   414.5622    
   2475.148     ,   371.2337    
   2476.635     ,   289.8874    
   2478.122     ,   231.6452    
   2479.608     ,   570.0020    
   2481.094     ,   469.0388    
   2482.579     ,   642.5602    
   2484.063     ,   377.9015    
   2485.548     ,   559.7175    
   2487.031     ,   206.0623    
   2488.514     ,   577.5888    
   2489.996     ,   439.0373    
   2491.478     ,   197.1804    
   2492.959     ,   75.65954    
   2494.440     ,   410.1011    
   2495.920     ,   367.2185    
   2497.399     ,   511.8755    
   2498.878     ,   387.6965    
   2500.357     ,   360.8134    
   2501.834     ,   440.0974    
   2503.312     ,   354.6474    
   2504.789     ,   458.0034    
   2506.265     ,   543.9153    
   2507.741     ,   411.4798    
   2509.216     ,   643.5878    
   2510.690     ,   783.6857    
   2512.164     ,   352.4122    
   2513.638     ,   723.5741    
   2515.111     ,   411.2641    
   2516.583     ,   331.3752    
   2518.055     ,   364.7598    
   2519.526     ,   180.2537    
   2520.997     ,   317.3494    
   2522.467     ,   361.0257    
   2523.937     ,   497.3663    
   2525.406     ,   490.4802    
   2526.874     ,   277.1975    
   2528.342     ,   564.5012    
   2529.810     ,   313.9060    
   2531.277     ,   230.2957    
   2532.743     ,   177.9413    
   2534.209     ,   264.4750    
   2535.674     ,   635.9610    
   2537.139     ,   208.3209    
   2538.603     ,   332.8743    
   2540.067     ,   201.9179    
   2541.530     ,   178.5416    
   2542.992     ,   290.3882    
   2544.454     ,   536.8040    
   2545.916     ,   269.2708    
   2547.376     ,   272.1832    
   2548.837     ,   20.44025    
   2550.296     ,   193.1496    
   2551.756     ,   69.01918    
   2553.214     ,   16.14018    
   2554.673     ,   155.7090    
   2556.130     ,   730.6924    
   2557.587     ,   323.8481    
   2559.044     ,   567.2050    
   2560.500     ,   274.0896    
   2561.955     ,   255.7200    
   2563.410     ,   254.3818    
   2564.864     ,   362.3578    
   2566.318     ,   65.62076    
   2567.771     ,   228.6797    
   2569.224     ,   331.8476    
   2570.676     ,   119.9967    
   2572.128     ,   142.9714    
   2573.579     ,   85.44688    
   2575.030     ,   199.2507    
   2576.479     ,   74.71889    
   2577.929     ,   281.4024    
   2579.378     ,   296.8151    
   2580.826     ,   114.5782    
   2582.274     ,   126.2150    
   2583.721     ,   122.4457    
   2585.168     ,   727.2255    
   2586.614     ,   12.80090    
   2588.060     ,   318.1749    
   2589.505     ,   244.1279    
   2590.950     ,   337.8484    
   2592.394     ,   125.7118    
   2593.837     ,   214.1698    
   2595.280     ,   292.8159    
   2596.723     ,   547.9056    
   2598.165     ,   85.95397    
   2599.606     ,   257.8371    
   2601.047     ,   244.8510    
   2602.487     ,   10.16201    
   2603.927     ,   186.5275    
   2605.366     ,   61.92536    
   2606.804     ,   180.7018    
   2608.242     ,   256.9785    
   2609.680     ,   487.7762    
   2611.117     ,   607.1404    
   2612.553     ,   403.4865    
   2613.990     ,   378.8243    
   2615.425     ,   352.7196    
   2616.860     ,   385.6353    
   2618.294     ,   251.5965    
   2619.728     ,   528.4488    
   2621.161     ,   375.3060    
   2622.594     ,   411.8928    
   2624.026     ,   338.6361    
   2625.458     ,   216.5306    
   2626.889     ,   411.3164    
   2628.319     ,   331.6869    
   2629.750     ,   463.5158    
   2631.179     ,   416.2645    
   2632.608     ,   325.8651    
   2634.036     ,   617.1178    
   2635.464     ,   87.30254    
   2636.892     ,   219.3773    
   2638.319     ,   158.1437    
   2639.745     ,   686.8937    
   2641.171     ,   159.5514    
   2642.596     ,   395.7058    
   2644.021     ,   278.6590    
   2645.445     ,   325.3211    
   2646.868     ,   537.7581    
   2648.291     ,   701.8672    
   2649.714     ,   495.8068    
   2651.136     ,   787.7126    
   2652.557     ,   398.9364    
   2653.978     ,   377.6323    
   2655.399     ,   574.0078    
   2656.819     ,   517.0046    
   2658.238     ,   415.4934    
   2659.657     ,   418.9041    
   2661.075     ,   253.9255    
   2662.493     ,   450.0964    
   2663.910     ,   589.0221    
   2665.327     ,   516.5251    
   2666.743     ,   389.5183    
   2668.159     ,   223.5177    
   2669.574     ,   541.6028    
   2670.988     ,   145.3227    
   2672.402     ,   40.64919    
   2673.816     ,   560.2859    
   2675.229     ,   409.2830    
   2676.641     ,   416.3842    
   2678.053     ,   255.7932    
   2679.465     ,   626.1382    
   2680.875     ,   104.5533    
   2682.286     ,   562.4667    
   2683.696     ,   245.2043    
   2685.105     ,   374.6686    
   2686.513     ,   311.6529    
   2687.922     ,   554.2050    
   2689.329     ,   98.68838    
   2690.737     ,   333.7367    
   2692.143     ,   6.085083    
   2693.549     ,   597.2706    
   2694.955     ,   205.8217    
   2696.360     ,   343.8084    
   2697.764     ,   729.9580    
   2699.168     ,   494.4084    
   2700.572     ,   229.0653    
   2701.975     ,   425.8527    
   2703.377     ,   241.0429    
   2704.779     ,   476.2746    
   2706.180     ,   397.3125    
   2707.581     ,   156.7200    
   2708.981     ,   88.34909    
   2710.381     ,   697.0090    
   2711.781     ,   187.5866    
   2713.179     ,   212.8544    
   2714.577     ,   386.2228    
   2715.975     ,   258.2938    
   2717.372     ,   418.1381    
   2718.769     ,   494.9947    
   2720.165     ,   53.61825    
   2721.560     ,   96.58769    
   2722.955     ,   77.04563    
   2724.350     ,   499.9993    
   2725.744     ,   517.2292    
   2727.137     ,   333.1595    
   2728.530     ,   309.3257    
   2729.923     ,   399.9511    
   2731.314     ,   521.3175    
   2732.706     ,   577.2632    
   2734.097     ,   387.9856    
   2735.487     ,   113.3195    
   2736.877     ,   263.9218    
   2738.266     ,   367.9057    
   2739.655     ,   191.3051    
   2741.043     ,   104.5077    
   2742.431     ,   291.3044    
   2743.818     ,   121.0301    
   2745.205     ,   287.9531    
   2746.591     ,   611.4045    
   2747.976     ,   311.0641    
   2749.361     ,   346.4851    
   2750.746     ,   634.0560    
   2752.130     ,   602.5037    
   2753.513     ,   570.8463    
   2754.896     ,   273.5663    
   2756.279     ,   411.2142    
   2757.661     ,   451.2249    
   2759.042     ,   403.4548    
   2760.423     ,   528.6381    
   2761.804     ,   488.4994    
   2763.183     ,   438.8364    
   2764.563     ,   336.6667    
   2765.942     ,   694.8280    
   2767.320     ,   388.1264    
   2768.698     ,   529.6533    
   2770.075     ,   237.1031    
   2771.452     ,   543.0701    
   2772.828     ,   46.65432    
   2774.204     ,   826.6136    
   2775.579     ,   408.4099    
   2776.954     ,   859.5955    
   2778.328     ,   354.5887    
   2779.701     ,   595.0139    
   2781.074     ,   392.8460    
   2782.447     ,   275.2916    
   2783.819     ,   260.1988    
   2785.191     ,   694.7240    
   2786.562     ,   193.1847    
   2787.932     ,   831.4279    
   2789.302     ,   435.2276    
   2790.672     ,   365.2667    
   2792.041     ,   799.0782    
   2793.409     ,   602.8530    
   2794.777     ,   572.8182    
   2796.145     ,   689.4641    
   2797.511     ,   387.1272    
   2798.878     ,   548.8753    
   2800.244     ,   752.6495    
   2801.609     ,   508.0598    
   2802.974     ,   141.6586    
   2804.338     ,   696.5305    
   2805.702     ,   217.7267    
   2807.065     ,   640.9510    
   2808.428     ,   306.6426    
   2809.791     ,   645.0455    
   2811.152     ,   145.2027    
   2812.513     ,   878.2348    
   2813.874     ,   847.9760    
   2815.234     ,   606.7316    
   2816.594     ,   221.2670    
   2817.953     ,   722.5881    
   2819.312     ,   409.3757    
   2820.670     ,   365.8362    
   2822.028     ,   36.83121    
   2823.385     ,   173.3289    
   2824.741     ,   549.7941    
   2826.098     ,   420.0577    
   2827.453     ,   405.9157    
   2828.808     ,   291.8437    
   2830.163     ,   349.8956    
   2831.517     ,   263.4533    
   2832.870     ,   441.9999    
   2834.223     ,   418.4812    
   2835.576     ,   16.27633    
   2836.928     ,   434.8896    
   2838.279     ,   137.9510    
   2839.630     ,   142.9742    
   2840.981     ,   215.6648    
   2842.331     ,   561.8391    
   2843.680     ,   348.8350    
   2845.029     ,   207.5229    
   2846.378     ,   319.5507    
   2847.726     ,   464.5884    
   2849.073     ,   170.5506    
   2850.420     ,   15.53013    
   2851.766     ,   82.12792    
   2853.112     ,   148.1900    
   2854.458     ,   182.8899    
   2855.802     ,   376.2889    
   2857.146     ,   157.3641    
   2858.490     ,   361.5415    
   2859.834     ,   47.70355    
   2861.177     ,   97.29425    
   2862.519     ,   101.1862    
   2863.861     ,   612.8217    
   2865.202     ,   97.67494    
   2866.543     ,   290.7765    
   2867.883     ,   184.5926    
   2869.223     ,   284.2221    
   2870.562     ,   207.8587    
   2871.901     ,   229.0438    
   2873.239     ,   294.1111    
   2874.577     ,   583.0611    
   2875.914     ,   30.90641    
   2877.251     ,   462.5024    
   2878.587     ,   201.4799    
   2879.923     ,   777.0813    
   2881.258     ,   494.2988    
   2882.593     ,   417.8299    
   2883.927     ,   154.9925    
   2885.260     ,   472.8452    
   2886.594     ,   99.62507    
   2887.926     ,   379.9168    
   2889.258     ,   362.9471    
   2890.590     ,   663.0952    
   2891.921     ,   5.021599    
   2893.252     ,   430.6949    
   2894.582     ,   45.73464    
   2895.911     ,   241.8762    
   2897.240     ,   352.3344    
   2898.569     ,   168.2103    
   2899.897     ,   142.5157    
   2901.225     ,   219.0781    
   2902.552     ,   597.3926    
   2903.879     ,   406.5300    
   2905.205     ,   523.1646    
   2906.530     ,   535.9573    
   2907.855     ,   372.1907    
   2909.180     ,   431.4074    
   2910.504     ,   204.3848    
   2911.828     ,   510.3374    
   2913.151     ,   547.7452    
   2914.473     ,   331.4718    
   2915.795     ,   30.47412    
   2917.117     ,   442.9618    
   2918.438     ,   590.0378    
   2919.759     ,   447.3077    
   2921.079     ,   288.3889    
   2922.398     ,   516.1587    
   2923.717     ,   422.4039    
   2925.036     ,   397.4489    
   2926.354     ,   585.1573    
   2927.671     ,   620.5720    
   2928.988     ,   732.3940    
   2930.305     ,   407.6763    
   2931.621     ,   549.3503    
   2932.937     ,   393.5167    
   2934.251     ,   85.69818    
   2935.566     ,   384.9377    
   2936.880     ,   179.5495    
   2938.194     ,   698.3341    
   2939.507     ,   270.4424    
   2940.819     ,   456.6614    
   2942.131     ,   507.4683    
   2943.443     ,   474.9669    
   2944.754     ,   215.3159    
   2946.064     ,   487.2116    
   2947.375     ,   574.1589    
   2948.684     ,   702.3361    
   2949.993     ,   706.2162    
   2951.302     ,   343.1554    
   2952.610     ,   341.8672    
   2953.917     ,   408.7610    
   2955.224     ,   552.9521    
   2956.531     ,   514.5791    
   2957.837     ,   13.37344    
   2959.142     ,   206.5963    
   2960.447     ,   626.8293    
   2961.752     ,   512.7454    
   2963.056     ,   136.5059    
   2964.360     ,   750.7466    
   2965.663     ,   503.6828    
   2966.965     ,   233.3434    
   2968.267     ,   262.2877    
   2969.569     ,   550.4976    
   2970.870     ,   6.526833    
   2972.170     ,   428.4232    
   2973.470     ,   99.78735    
   2974.770     ,   433.1320    
   2976.069     ,   97.53207    
   2977.368     ,   587.2858    
   2978.666     ,   274.7209    
   2979.964     ,   895.1934    
   2981.261     ,   244.4234    
   2982.557     ,   610.9554    
   2983.853     ,   323.1478    
   2985.149     ,   183.3582    
   2986.444     ,   206.6040    
   2987.739     ,   798.3126    
   2989.033     ,   642.7655    
   2990.327     ,   680.9039    
   2991.620     ,   383.6799    
   2992.912     ,   367.0239    
   2994.205     ,   389.1521    
   2995.496     ,   430.6566    
   2996.787     ,   248.1181    
   2998.078     ,   371.0966    
   2999.368     ,   202.2712    
   3000.658     ,   224.6186    
   3001.947     ,   343.2769    
   3003.236     ,   332.5065    
   3004.524     ,   401.3258    
   3005.812     ,   342.9436    
   3007.099     ,   107.9640    
   3008.386     ,   519.8221    
   3009.672     ,   86.92363    
   3010.958     ,   275.4225    
   3012.243     ,   199.1403    
   3013.528     ,   757.4626    
   3014.812     ,   429.5345    
   3016.096     ,   723.7227    
   3017.379     ,   627.0251    
   3018.662     ,   362.2805    
   3019.944     ,   132.5379    
   3021.226     ,   496.5898    
   3022.507     ,   630.3322    
   3023.788     ,   601.9933    
   3025.069     ,   733.6808    
   3026.348     ,   556.8013    
   3027.628     ,   380.3898    
   3028.906     ,   417.4504    
   3030.185     ,   42.76236    
   3031.463     ,   268.1830    
   3032.740     ,   402.6096    
   3034.017     ,   13.02479    
   3035.294     ,   111.2770    
   3036.570     ,   430.9116    
   3037.845     ,   199.7252    
   3039.120     ,   500.2772    
   3040.395     ,   168.4702    
   3041.668     ,   381.8600    
   3042.942     ,   75.06512    
   3044.215     ,   565.6052    
   3045.488     ,   278.4554    
   3046.760     ,   425.9694    
   3048.031     ,   47.05811    
   3049.302     ,   547.9991    
   3050.573     ,   140.5204    
   3051.843     ,   333.4371    
   3053.112     ,   314.7730    
   3054.381     ,   413.3548    
   3055.650     ,   579.0775    
   3056.918     ,   769.9341    
   3058.186     ,   217.5756    
   3059.453     ,   310.0479    
   3060.719     ,   399.7158    
   3061.986     ,   615.0667    
   3063.251     ,   133.9894    
   3064.517     ,   1157.085    
   3065.781     ,   429.9556    
   3067.046     ,   575.8250    
   3068.309     ,   505.7891    
   3069.573     ,   475.8276    
   3070.835     ,   831.7296    
   3072.098     ,   34.83192    
   3073.359     ,   455.4572    
   3074.621     ,   681.3349    
   3075.882     ,   60.80940    
   3077.142     ,   475.0443    
   3078.402     ,   56.42305    
   3079.661     ,   144.1150    
   3080.920     ,   23.87929    
   3082.178     ,   762.7118    
   3083.437     ,   270.1445    
   3084.694     ,   285.5331    
   3085.951     ,   82.46620    
   3087.207     ,   472.2625    
   3088.463     ,   142.7972    
   3089.719     ,   445.7280    
   3090.974     ,   16.06337    
   3092.229     ,   244.2425    
   3093.482     ,   555.2552    
   3094.736     ,   385.3511    
   3095.989     ,   86.51803    
   3097.242     ,   510.8506    
   3098.494     ,   629.4323    
   3099.746     ,   1089.985    
   3100.997     ,   477.0487    
   3102.247     ,   574.5319    
   3103.498     ,   504.2183    
   3104.747     ,   834.5775    
   3105.997     ,   767.3721    
   3107.245     ,   684.0757    
   3108.494     ,   317.4375    
   3109.741     ,   809.2334    
   3110.989     ,   414.8505    
   3112.236     ,   460.9895    
   3113.482     ,   149.4859    
   3114.728     ,   479.9886    
   3115.973     ,   350.1420    
   3117.218     ,   429.6038    
   3118.462     ,   151.0319    
   3119.706     ,   414.9833    
   3120.950     ,   98.73660    
   3122.193     ,   381.3675    
   3123.435     ,   292.8887    
   3124.677     ,   278.8379    
   3125.919     ,   328.4352    
   3127.160     ,   308.6353    
   3128.401     ,   767.2150    
   3129.641     ,   487.4592    
   3130.880     ,   10.72871    
   3132.119     ,   320.8512    
   3133.358     ,   170.0540    
   3134.596     ,   402.5179    
   3135.834     ,   33.68121    
   3137.071     ,   615.3307    
   3138.308     ,   160.3040    
   3139.544     ,   477.8856    
   3140.780     ,   717.3533    
   3142.015     ,   499.4826    
   3143.250     ,   131.2747    
   3144.485     ,   234.6990    
   3145.719     ,   342.9530    
   3146.952     ,   303.3048    
   3148.185     ,   3.580818    
   3149.417     ,   703.3575    
   3150.649     ,   647.8016    
   3151.881     ,   329.0775    
   3153.112     ,   558.0530    
   3154.343     ,   678.3648    
   3155.573     ,   501.1089    
   3156.802     ,   723.9954    
   3158.031     ,   563.4682    
   3159.260     ,   650.2460    
   3160.488     ,   53.59862    
   3161.716     ,   293.3241    
   3162.943     ,   450.8969    
   3164.170     ,   277.5360    
   3165.396     ,   380.9620    
   3166.622     ,   697.2347    
   3167.847     ,   12.53075    
   3169.072     ,   789.9307    
   3170.296     ,   55.15133    
   3171.520     ,   922.0029    
   3172.744     ,   658.6808    
   3173.967     ,   777.5991    
   3175.189     ,   120.4799    
   3176.411     ,   550.3583    
   3177.633     ,   463.9492    
   3178.854     ,   507.9099    
   3180.074     ,   507.7054    
   3181.294     ,   196.8355    
   3182.514     ,   985.9161    
   3183.733     ,   589.6636    
   3184.952     ,   735.9919    
   3186.170     ,   264.6784    
   3187.388     ,   629.9222    
   3188.605     ,   105.9667    
   3189.822     ,   129.4222    
   3191.038     ,   481.0839    
   3192.254     ,   510.9259    
   3193.470     ,   489.4279    
   3194.685     ,   328.0875    
   3195.899     ,   870.5276    
   3197.113     ,   332.0490    
   3198.326     ,   720.7693    
   3199.540     ,   338.8088    
   3200.752     ,   650.0897    
   3201.964     ,   702.6948    
   3203.176     ,   743.1277    
   3204.387     ,   627.7403    
   3205.597     ,   838.1408    
   3206.808     ,   233.4469    
   3208.017     ,   571.8422    
   3209.227     ,   604.1706    
   3210.436     ,   765.1357    
   3211.644     ,   710.5415    
   3212.852     ,   481.6384    
   3214.059     ,   564.1113    
   3215.266     ,   523.3052    
   3216.472     ,   793.1125    
   3217.678     ,   610.8677    
   3218.884     ,   687.2681    
   3220.089     ,   838.4243    
   3221.293     ,   405.1688    
   3222.498     ,   517.1483    
   3223.701     ,   229.6373    
   3224.904     ,   898.1290    
   3226.107     ,   416.2364    
   3227.309     ,   241.2410    
   3228.511     ,   592.1558    
   3229.712     ,   519.4017    
   3230.913     ,   304.9008    
   3232.113     ,   813.3989    
   3233.313     ,   610.4537    
   3234.513     ,   491.7664    
   3235.712     ,   83.37665    
   3236.910     ,   833.5425    
   3238.108     ,   69.67118    
   3239.306     ,   737.2318    
   3240.503     ,   638.7672    
   3241.699     ,   41.88548    
   3242.896     ,   129.7651    
   3244.091     ,   473.7935    
   3245.286     ,   209.8821    
   3246.481     ,   306.7821    
   3247.675     ,   829.8058    
   3248.869     ,   505.7158    
   3250.062     ,   752.3206    
   3251.255     ,   469.6799    
   3252.448     ,   303.2670    
   3253.640     ,   238.1859    
   3254.831     ,   923.2169    
   3256.022     ,   835.8756    
   3257.213     ,   547.0087    
   3258.403     ,   772.1464    
   3259.593     ,   608.5974    
   3260.781     ,   269.0221    
   3261.970     ,   618.6581    
   3263.158     ,   202.2957    
   3264.346     ,   524.1923    
   3265.533     ,   527.2986    
   3266.720     ,   411.8267    
   3267.907     ,   10.55230    
   3269.093     ,   204.2491    
   3270.278     ,   437.1551    
   3271.463     ,   380.0634    
   3272.647     ,   330.0727    
   3273.832     ,   285.8708    
   3275.015     ,   635.6932    
   3276.198     ,   234.4931    
   3277.381     ,   20.06898    
   3278.563     ,   451.9185    
   3279.745     ,   49.56564    
   3280.926     ,   124.3360    
   3282.107     ,   148.0263    
   3283.287     ,   235.9777    
   3284.467     ,   487.4559    
   3285.647     ,   2.618584    
   3286.826     ,   376.1508    
   3288.004     ,   213.7387    
   3289.182     ,   524.8966    
   3290.360     ,   222.2779    
   3291.537     ,   413.0411    
   3292.713     ,   180.3395    
   3293.890     ,   515.4451    
   3295.065     ,   422.8845    
   3296.241     ,   392.7855    
   3297.416     ,   298.5097    
   3298.590     ,   504.2128    
   3299.764     ,   413.2932    
   3300.937     ,   33.11104    
   3302.110     ,   39.51733    
   3303.282     ,   411.2498    
   3304.455     ,   406.0533    
   3305.626     ,   142.3213    
   3306.797     ,   143.0335    
   3307.968     ,   224.9066    
   3309.138     ,   87.26279    
   3310.308     ,   463.8179    
   3311.477     ,   302.9147    
   3312.646     ,   228.8002    
   3313.814     ,   600.9641    
   3314.982     ,   63.92790    
   3316.150     ,   186.8579    
   3317.317     ,   514.1989    
   3318.483     ,   4.327507    
   3319.649     ,   135.0655    
   3320.815     ,   511.5913    
   3321.980     ,   24.15996    
   3323.145     ,   527.1439    
   3324.309     ,   856.0467    
   3325.473     ,   470.2583    
   3326.636     ,   696.9706    
   3327.799     ,   427.4016    
   3328.961     ,   353.5949    
   3330.123     ,   125.1341    
   3331.285     ,   618.5778    
   3332.446     ,   392.7797    
   3333.606     ,   36.74506    
   3334.767     ,   606.3866    
   3335.926     ,   416.4452    
   3337.085     ,   76.26561    
   3338.244     ,   414.6861    
   3339.402     ,   405.8068    
   3340.560     ,   535.3597    
   3341.718     ,   225.1912    
   3342.875     ,   224.1543    
   3344.031     ,   530.0159    
   3345.187     ,   186.0880    
   3346.343     ,   651.5338    
   3347.498     ,   510.0081    
   3348.652     ,   568.1102    
   3349.806     ,   753.7113    
   3350.960     ,   172.3129    
   3352.114     ,   660.8495    
   3353.266     ,   342.5637    
   3354.419     ,   309.7971    
   3355.571     ,   418.4233    
   3356.722     ,   151.9090    
   3357.873     ,   127.4520    
   3359.024     ,   737.7288    
   3360.174     ,   368.6539    
   3361.323     ,   349.8984    
   3362.473     ,   268.9401    
   3363.621     ,   235.3951    
   3364.770     ,   575.8066    
   3365.917     ,   92.03699    
   3367.065     ,   294.4630    
   3368.212     ,   483.9001    
   3369.358     ,   90.05500    
   3370.504     ,   217.8552    
   3371.650     ,   687.1403    
   3372.795     ,   358.3594    
   3373.939     ,   697.1860    
   3375.084     ,   743.9890    
   3376.228     ,   256.8342    
   3377.371     ,   525.4685    
   3378.514     ,   929.9446    
   3379.656     ,   550.3577    
   3380.798     ,   579.9076    
   3381.939     ,   607.4584    
   3383.080     ,   782.2820    
   3384.221     ,   1063.914    
   3385.361     ,   385.1360    
   3386.501     ,   1028.093    
   3387.640     ,   671.4165    
   3388.779     ,   457.6474    
   3389.917     ,   788.1411    
   3391.055     ,   744.0587    
   3392.192     ,   702.7139    
   3393.329     ,   500.4688    
   3394.466     ,   939.9653    
   3395.602     ,   1021.946    
   3396.738     ,   1253.899    
   3397.873     ,   385.1446    
   3399.008     ,   156.0141    
   3400.142     ,   372.8735    
   3401.276     ,   3.897224    
   3402.409     ,   439.3486    
   3403.542     ,   870.8262    
   3404.674     ,   954.8275    
   3405.806     ,   622.3293    
   3406.938     ,   841.8376    
   3408.069     ,   840.7565    
   3409.200     ,   529.2728    
   3410.330     ,   1198.125    
   3411.460     ,   717.0190    
   3412.589     ,   1021.150    
   3413.718     ,   434.2841    
   3414.846     ,   454.6598    
   3415.974     ,   867.6475    
   3417.102     ,   1132.669    
   3418.229     ,   868.2933    
   3419.356     ,   322.0036    
   3420.482     ,   648.5515    
   3421.607     ,   994.9280    
   3422.733     ,   746.9073    
   3423.858     ,   591.0402    
   3424.982     ,   1073.285    
   3426.106     ,   435.5902    
   3427.229     ,   803.2861    
   3428.353     ,   772.6746    
   3429.475     ,   714.8196    
   3430.597     ,   707.9532    
   3431.719     ,   670.5151    
   3432.840     ,   435.2092    
   3433.961     ,   261.1661    
   3435.082     ,   815.1583    
   3436.201     ,   164.2906    
   3437.321     ,   223.7854    
   3438.440     ,   315.1843    
   3439.559     ,   1201.003    
   3440.677     ,   903.5893    
   3441.794     ,   1173.164    
   3442.912     ,   1040.775    
   3444.029     ,   570.4905    
   3445.145     ,   739.3672    
   3446.261     ,   498.4503    
   3447.376     ,   684.0503    
   3448.491     ,   825.2899    
   3449.606     ,   568.1102    
   3450.720     ,   888.3322    
   3451.834     ,   421.9804    
   3452.947     ,   696.9366    
   3454.060     ,   63.48911    
   3455.172     ,   313.1409    
   3456.284     ,   347.0978    
   3457.396     ,   472.2306    
   3458.506     ,   484.4390    
   3459.617     ,   669.9044    
   3460.727     ,   727.2784    
   3461.837     ,   289.1968    
   3462.946     ,   716.2680    
   3464.055     ,   343.7607    
   3465.163     ,   213.2479    
   3466.271     ,   314.8171    
   3467.379     ,   121.8360    
   3468.486     ,   467.0711    
   3469.592     ,   749.5487    
   3470.698     ,   132.9706    
   3471.804     ,   593.8726    
   3472.909     ,   449.9961    
   3474.014     ,   55.03231    
   3475.119     ,   485.8303    
   3476.223     ,   228.6158    
   3477.326     ,   315.4344    
   3478.429     ,   791.7202    
   3479.532     ,   376.4800    
   3480.634     ,   499.8313    
   3481.736     ,   706.2944    
   3482.837     ,   127.7374    
   3483.938     ,   60.97371    
   3485.038     ,   36.99126    
   3486.138     ,   793.5019    
   3487.238     ,   1008.021    
   3488.337     ,   396.4192    
   3489.435     ,   126.2783    
   3490.533     ,   764.1714    
   3491.631     ,   496.5003    
   3492.729     ,   85.09373    
   3493.825     ,   213.1479    
   3494.922     ,   337.8969    
   3496.018     ,   35.84139    
   3497.114     ,   529.5018    
   3498.208     ,   332.5357    
   3499.303     ,   662.1574    
   3500.397     ,   578.7816    
   3501.491     ,   1000.635    
   3502.585     ,   114.4334    
   3503.677     ,   309.6287    
   3504.770     ,   294.8517    
   3505.862     ,   125.0642    
   3506.954     ,   431.7747    
   3508.045     ,   272.4325    
   3509.135     ,   676.3638    
   3510.226     ,   129.0510    
   3511.316     ,   162.2775    
   3512.405     ,   72.35515    
   3513.494     ,   596.4147    
   3514.583     ,   294.6601    
   3515.671     ,   441.2905    
   3516.758     ,   284.5750    
   3517.845     ,   251.7650    
   3518.932     ,   533.9935    
   3520.019     ,   638.8134    
   3521.104     ,   573.1425    
   3522.190     ,   227.8243    
   3523.275     ,   445.6894    
   3524.360     ,   640.2900    
   3525.444     ,   149.1321    
   3526.528     ,   255.9120    
   3527.611     ,   394.2328    
   3528.694     ,   149.7617    
   3529.776     ,   891.9681    
   3530.858     ,   663.2780    
   3531.939     ,   278.1497    
   3533.021     ,   131.5190    
   3534.101     ,   442.6374    
   3535.181     ,   784.6698    
   3536.261     ,   384.7879    
   3537.341     ,   926.5814    
   3538.419     ,   578.5033    
   3539.498     ,   486.3660    
   3540.576     ,   795.6063    
   3541.654     ,   580.8703    
   3542.731     ,   493.5552    
   3543.808     ,   395.9414    
   3544.884     ,   576.4906    
   3545.960     ,   459.5034    
   3547.035     ,   267.8623    
   3548.110     ,   200.3584    
   3549.185     ,   551.9928    
   3550.259     ,   665.7924    
   3551.333     ,   501.1098    
   3552.406     ,   164.9591    
   3553.479     ,   80.62761    
   3554.551     ,   302.2876    
   3555.623     ,   307.3567    
   3556.695     ,   426.7955    
   3557.766     ,   532.8704    
   3558.836     ,   426.0891    
   3559.906     ,   473.6423    
   3560.976     ,   449.2738    
   3562.046     ,   899.8317    
   3563.115     ,   299.4763    
   3564.183     ,   762.3950    
   3565.251     ,   168.2329    
   3566.319     ,   644.1192    
   3567.386     ,   446.4047    
   3568.453     ,   636.0109    
   3569.519     ,   1143.229    
   3570.585     ,   1003.454    
   3571.650     ,   287.2396    
   3572.715     ,   1046.566    
   3573.780     ,   785.1561    
   3574.844     ,   882.3442    
   3575.908     ,   494.7001    
   3576.971     ,   839.6465    
   3578.034     ,   1022.230    
   3579.096     ,   435.8049    
   3580.158     ,   240.4499    
   3581.220     ,   679.5058    
   3582.281     ,   712.4448    
   3583.342     ,   706.9880    
   3584.402     ,   461.4768    
   3585.462     ,   1508.603    
   3586.521     ,   951.5831    
   3587.580     ,   943.0504    
   3588.639     ,   626.3755    
   3589.697     ,   582.1882    
   3590.755     ,   905.2159    
   3591.812     ,   770.8389    
   3592.869     ,   712.8917    
   3593.925     ,   628.8992    
   3594.981     ,   497.5927    
   3596.037     ,   438.6694    
   3597.092     ,   512.5825    
   3598.146     ,   1083.317    
   3599.201     ,   9.611145    
   3600.255     ,   232.1279    
   3601.308     ,   509.9374    
   3602.361     ,   597.4523    
   3603.414     ,   681.6549    
   3604.466     ,   909.3304    
   3605.517     ,   396.0737    
   3606.569     ,   277.1937    
   3607.619     ,   683.4792    
   3608.670     ,   444.8777    
   3609.720     ,   535.3951    
   3610.769     ,   604.0911    
   3611.818     ,   345.1573    
   3612.867     ,   641.6989    
   3613.915     ,   810.5621    
   3614.963     ,   742.0457    
   3616.010     ,   817.2444    
   3617.057     ,   760.6647    
   3618.104     ,   402.8315    
   3619.150     ,   503.0280    
   3620.196     ,   1159.463    
   3621.241     ,   303.8799    
   3622.286     ,   427.9163    
   3623.330     ,   816.1001    
   3624.374     ,   643.8981    
   3625.418     ,   692.8885    
   3626.461     ,   620.5153    
   3627.503     ,   601.0071    
   3628.546     ,   794.2610    
   3629.588     ,   388.4509    
   3630.629     ,   229.3534    
   3631.670     ,   563.4312    
   3632.710     ,   847.5110    
   3633.751     ,   666.9494    
   3634.790     ,   751.1880    
   3635.830     ,   586.7029    
   3636.868     ,   474.3320    
   3637.907     ,   400.9333    
   3638.945     ,   6.515366    
   3639.982     ,   175.6529    
   3641.020     ,   637.0822    
   3642.056     ,   337.9615    
   3643.093     ,   364.4991    
   3644.128     ,   4.248474    
   3645.164     ,   55.98909    
   3646.199     ,   911.6019    
   3647.234     ,   109.3226    
   3648.268     ,   547.5359    
   3649.302     ,   12.32792    
   3650.335     ,   494.1234    
   3651.368     ,   1249.145    
   3652.400     ,   722.0823    
   3653.432     ,   410.6118    
   3654.464     ,   926.4308    
   3655.495     ,   456.4385    
   3656.526     ,   368.0308    
   3657.556     ,  0.2522050    
   3658.586     ,   803.5242    
   3659.616     ,   131.2961    
   3660.645     ,   796.0711    
   3661.673     ,   547.0478    
   3662.702     ,   446.7647    
   3663.729     ,   1221.211    
   3664.757     ,   584.7390    
   3665.784     ,   144.3521    
   3666.810     ,   516.9659    
   3667.836     ,   433.8168    
   3668.862     ,   450.1379    
   3669.887     ,   475.3595    
   3670.912     ,   2.180481    
   3671.937     ,   494.4614    
   3672.961     ,   986.6628    
   3673.984     ,   307.1736    
   3675.008     ,   811.0635    
   3676.030     ,   135.5825    
   3677.052     ,   216.7506    
   3678.074     ,   606.5150    
   3679.096     ,   538.0591    
   3680.117     ,   25.30067    
   3681.138     ,   818.2567    
   3682.158     ,   267.2219    
   3683.178     ,   359.0721    
   3684.197     ,   796.4132    
   3685.216     ,   887.1090    
   3686.234     ,   82.00558    
   3687.253     ,   235.5758    
   3688.270     ,   53.15525    
   3689.288     ,   453.4484    
   3690.304     ,   794.7933    
   3691.321     ,   945.5521    
   3692.337     ,   298.3946    
   3693.352     ,   765.1220    
   3694.367     ,   137.4148    
   3695.382     ,   878.0616    
   3696.397     ,   240.6897    
   3697.410     ,   530.4044    
   3698.424     ,   245.7437    
   3699.437     ,   547.9527    
   3700.450     ,   441.6787    
   3701.462     ,   1093.207    
   3702.474     ,   683.2817    
   3703.485     ,   260.3853    
   3704.496     ,   752.1497    
   3705.507     ,   465.9511    
   3706.517     ,   841.6382    
   3707.526     ,   390.9373    
   3708.536     ,   450.8808    
   3709.545     ,   286.4837    
   3710.553     ,   928.7007    
   3711.561     ,   497.2631    
   3712.569     ,   33.25005    
   3713.576     ,   753.1925    
   3714.583     ,   843.7684    
   3715.589     ,   610.3372    
   3716.595     ,   387.0313    
   3717.601     ,   371.5737    
   3718.606     ,   212.0068    
   3719.610     ,   529.0567    
   3720.615     ,   71.73996    
   3721.618     ,   271.9652    
   3722.622     ,   589.7156    
   3723.625     ,   34.81699    
   3724.627     ,   606.3137    
   3725.630     ,   740.1943    
   3726.632     ,   494.1739    
   3727.633     ,   441.7986    
   3728.634     ,   826.0070    
   3729.634     ,   1284.222    
   3730.634     ,   544.6190    
   3731.634     ,   437.0763    
   3732.633     ,   455.7807    
   3733.632     ,   697.2636    
   3734.631     ,   529.7092    
   3735.629     ,   767.3732    
   3736.626     ,   27.22030    
   3737.624     ,   160.6935    
   3738.620     ,   481.2519    
   3739.616     ,   660.2349    
   3740.613     ,   397.1859    
   3741.608     ,   390.2926    
   3742.603     ,   579.1271    
   3743.598     ,   509.5286    
   3744.592     ,   803.7029    
   3745.586     ,   122.1864    
   3746.579     ,   992.4982    
   3747.573     ,   809.4291    
   3748.565     ,   721.0778    
   3749.557     ,   445.2130    
   3750.549     ,   217.1785    
   3751.541     ,   725.1721    
   3752.531     ,   302.7683    
   3753.522     ,   13.60013    
   3754.512     ,   184.7317    
   3755.502     ,   523.6651    
   3756.491     ,   438.9824    
   3757.480     ,   759.0447    
   3758.469     ,   769.2114    
   3759.457     ,   260.5587    
   3760.444     ,   700.1941    
   3761.431     ,   443.7538    
   3762.418     ,   260.8097    
   3763.405     ,   514.3637    
   3764.391     ,   549.4394    
   3765.376     ,   495.7916    
   3766.361     ,   507.7799    
   3767.346     ,   419.5805    
   3768.331     ,   222.1079    
   3769.314     ,   636.0632    
   3770.298     ,   859.5749    
   3771.281     ,   239.0387    
   3772.264     ,   70.91766    
   3773.246     ,   275.1628    
   3774.228     ,   1110.075    
   3775.209     ,   486.9403    
   3776.190     ,   11.83887    
   3777.171     ,   420.2686    
   3778.151     ,   358.8868    
   3779.131     ,   159.2099    
   3780.110     ,   482.3431    
   3781.089     ,   555.4824    
   3782.068     ,   400.5283    
   3783.046     ,   874.8781    
   3784.024     ,   265.0951    
   3785.001     ,   577.1175    
   3785.978     ,   92.05420    
   3786.955     ,   407.0963    
   3787.931     ,   761.0554    
   3788.906     ,   271.3800    
   3789.882     ,   855.1296    
   3790.856     ,   1127.012    
   3791.831     ,   433.0711    
   3792.805     ,   562.9839    
   3793.779     ,   775.0785    
   3794.752     ,   238.3016    
   3795.725     ,   120.2450    
   3796.697     ,   216.9650    
   3797.669     ,   611.3514    
   3798.641     ,   1317.261    
   3799.612     ,   997.3323    
   3800.583     ,   569.9236    
   3801.553     ,   210.3100    
   3802.523     ,   292.5742    
   3803.492     ,   457.4923    
   3804.462     ,   101.0861    
   3805.430     ,   300.4915    
   3806.399     ,   575.0199    
   3807.366     ,   212.0819    
   3808.334     ,   1167.443    
   3809.301     ,   334.6504    
   3810.268     ,   678.6309    
   3811.234     ,   861.7888    
   3812.200     ,   395.8221    
   3813.165     ,   417.9688    
   3814.130     ,   109.4655    
   3815.095     ,   690.8322    
   3816.059     ,   547.6285    
   3817.023     ,   421.6059    
   3817.986     ,   843.2546    
   3818.949     ,   244.3864    
   3819.912     ,   1180.118    
   3820.874     ,   535.4188    
   3821.836     ,   326.9646    
   3822.797     ,   664.2908    
   3823.758     ,   26.08146    
   3824.719     ,   805.5918    
   3825.679     ,   340.9817    
   3826.639     ,   718.5966    
   3827.598     ,   853.8679    
   3828.557     ,   2.423126    
   3829.515     ,   664.1246    
   3830.474     ,   140.9168    
   3831.431     ,   309.9628    
   3832.388     ,   623.5165    
   3833.345     ,   455.8770    
   3834.302     ,   826.8859    
   3835.258     ,   983.9888    
   3836.214     ,   268.7231    
   3837.169     ,   1030.662    
   3838.124     ,   503.2706    
   3839.078     ,   531.6182    
   3840.032     ,   762.2943    
   3840.986     ,   444.4802    
   3841.939     ,   494.3842    
   3842.892     ,   37.69537    
   3843.844     ,   577.4576    
   3844.796     ,   950.1296    
   3845.748     ,   546.6771    
   3846.699     ,   1282.116    
   3847.650     ,   771.3246    
   3848.600     ,   861.6606    
   3849.550     ,   81.31536    
   3850.500     ,   786.8090    
   3851.449     ,   659.2499    
   3852.398     ,   564.5787    
   3853.346     ,   147.3325    
   3854.294     ,   803.4872    
   3855.242     ,   643.3843    
   3856.189     ,   922.9894    
   3857.136     ,   427.4571    
   3858.082     ,   67.91402    
   3859.028     ,   466.3276    
   3859.973     ,   618.9243    
   3860.918     ,   1046.648    
   3861.863     ,   840.9808    
   3862.808     ,   517.2047    
   3863.751     ,   53.78916    
   3864.695     ,   441.5796    
   3865.638     ,   553.6141    
   3866.581     ,   759.9744    
   3867.523     ,   696.8350    
   3868.465     ,   779.3915    
   3869.406     ,   862.1885    
   3870.348     ,   786.2345    
   3871.288     ,   556.5451    
   3872.229     ,   1068.672    
   3873.168     ,   521.2434    
   3874.108     ,   815.4327    
   3875.047     ,   262.2879    
   3875.986     ,   556.8181    
   3876.924     ,   609.8609    
   3877.862     ,   784.6926    
   3878.799     ,   675.6847    
   3879.737     ,   475.6497    
   3880.673     ,   714.9645    
   3881.609     ,   660.6116    
   3882.545     ,   661.2064    
   3883.481     ,   612.9835    
   3884.416     ,   1195.858    
   3885.350     ,   516.4937    
   3886.285     ,   587.4753    
   3887.219     ,   290.2514    
   3888.152     ,   591.8795    
   3889.085     ,   105.2018    
   3890.018     ,   597.7446    
   3890.950     ,   887.3980    
   3891.882     ,   372.3997    
   3892.813     ,   756.0973    
   3893.744     ,   595.3583    
   3894.675     ,   578.5609    
   3895.605     ,   781.6736    
   3896.535     ,   277.8311    
   3897.464     ,   923.7078    
   3898.394     ,   578.4642    
   3899.322     ,   420.4725    
   3900.250     ,   1122.665    
   3901.178     ,   1014.306    
   3902.106     ,   398.8544    
   3903.033     ,   397.8582    
   3903.959     ,   1359.425    
   3904.885     ,   1647.629    
   3905.811     ,   160.8125    
   3906.737     ,   874.0928    
   3907.662     ,   1060.231    
   3908.586     ,   716.3372    
   3909.511     ,   493.5354    
   3910.435     ,   535.5610    
   3911.358     ,   937.2483    
   3912.281     ,   595.1192    
   3913.204     ,   778.0370    
   3914.126     ,   284.6997    
   3915.048     ,   1065.348    
   3915.969     ,   945.8192    
   3916.890     ,   630.6360    
   3917.811     ,   887.5114    
   3918.731     ,   798.9048    
   3919.651     ,   705.4688    
   3920.571     ,   49.52087    
   3921.490     ,   579.1232    
   3922.408     ,   1007.419    
   3923.326     ,   185.9103    
   3924.244     ,   720.2466    
   3925.162     ,   155.7163    
   3926.079     ,   84.18480    
   3926.995     ,   302.6893    
   3927.912     ,   677.9104    
   3928.828     ,   85.22336    
   3929.743     ,   392.3074    
   3930.658     ,   1022.176    
   3931.573     ,   413.8510    
   3932.487     ,   314.6914    
   3933.401     ,   1047.764    
   3934.314     ,   1227.066    
   3935.228     ,   493.2116    
   3936.140     ,   1341.062    
   3937.052     ,   723.4250    
   3937.964     ,   522.0036    
   3938.876     ,   762.2375    
   3939.787     ,   881.5698    
   3940.698     ,   581.2108    
   3941.608     ,   1523.034    
   3942.518     ,   291.6400    
   3943.427     ,   311.5571    
   3944.337     ,   487.4574    
   3945.245     ,   780.1788    
   3946.154     ,   144.9128    
   3947.062     ,   463.6471    
   3947.969     ,   857.4639    
   3948.876     ,   500.5738    
   3949.783     ,   465.5046    
   3950.689     ,   514.0791    
   3951.595     ,   920.2454    
   3952.501     ,   808.4107    
   3953.406     ,   522.7645    
   3954.311     ,   312.5214    
   3955.215     ,   526.4268    
   3956.119     ,   390.9420    
   3957.023     ,   890.0209    
   3957.926     ,   662.8141    
   3958.829     ,   602.0931    
   3959.731     ,   1281.865    
   3960.633     ,   542.5035    
   3961.535     ,   684.3176    
   3962.436     ,   1020.670    
   3963.337     ,   625.7393    
   3964.237     ,   1761.302    
   3965.137     ,   976.0427    
   3966.037     ,   477.8300    
   3966.936     ,   1439.248    
   3967.835     ,   1105.349    
   3968.733     ,   435.4650    
   3969.632     ,   1394.272    
   3970.529     ,   1123.878    
   3971.427     ,   1296.101    
   3972.323     ,   374.6736    
   3973.220     ,   724.7962    
   3974.116     ,   825.4756    
   3975.012     ,   1397.363    
   3975.907     ,   1397.827    
   3976.802     ,   888.2392    
   3977.696     ,   996.2685    
   3978.591     ,   899.7318    
   3979.484     ,   524.2788    
   3980.378     ,   151.7952    
   3981.271     ,   518.3945    
   3982.163     ,   1172.292    
   3983.055     ,   681.8262    
   3983.947     ,   318.5158    
   3984.838     ,   627.9075    
   3985.729     ,   1051.489    
   3986.620     ,   587.5952    
   3987.510     ,   761.1254    
   3988.400     ,   432.9335    
   3989.289     ,   850.1883    
   3990.178     ,   708.2441    
   3991.067     ,   735.7194    
   3991.955     ,   812.2402    
   3992.843     ,   912.6957    
   3993.731     ,   620.5026    
   3994.618     ,   33.43962    
   3995.504     ,   955.7854    
   3996.391     ,   1361.146    
   3997.277     ,   1032.989    
   3998.162     ,   697.9064    
   3999.047     ,   1065.863    
   3999.932     ,   227.8204    
   4000.816     ,   1402.274    
   4001.700     ,   730.6204    
   4002.584     ,   951.7002    
   4003.467     ,   474.1448    
   4004.350     ,   501.0587    
   4005.232     ,   357.5175    
   4006.114     ,   882.0983    
   4006.996     ,   1282.151    
   4007.877     ,   148.2572    
   4008.758     ,   1374.640    
   4009.638     ,   304.0240    
   4010.518     ,   875.2350    
   4011.398     ,   116.7120    
   4012.277     ,   286.1346    
   4013.156     ,   197.3378    
   4014.034     ,   1082.496    
   4014.912     ,   866.8736    
   4015.790     ,   1028.665    
   4016.667     ,   633.9881    
   4017.544     ,   6.907471    
   4018.421     ,   701.2738    
   4019.297     ,   548.5964    
   4020.173     ,   797.1911    
   4021.048     ,   324.8252    
   4021.923     ,   212.5837    
   4022.798     ,   446.2784    
   4023.672     ,   788.2888    
   4024.546     ,   866.4302    
   4025.419     ,   164.6912    
   4026.292     ,   479.2683    
   4027.165     ,   651.0699    
   4028.037     ,   834.6624    
   4028.909     ,   440.1078    
   4029.780     ,   300.7247    
   4030.651     ,   555.2604    
   4031.522     ,   766.4811    
   4032.392     ,   69.56927    
   4033.262     ,   234.4816    
   4034.132     ,   9.746002    
   4035.001     ,   305.7095    
   4035.870     ,   471.3220    
   4036.738     ,   891.8008    
   4037.606     ,   339.5794    
   4038.474     ,   626.4692    
   4039.341     ,   88.54807    
   4040.208     ,   799.7653    
   4041.074     ,   585.1490    
   4041.940     ,   433.1678    
   4042.806     ,   273.0839    
   4043.671     ,   439.7498    
   4044.536     ,  0.0000000E+00
