   127.5375     ,  0.0000000E+00
   129.8947     ,   34.19735    
   132.2509     ,   303.2802    
   134.6063     ,   360.1443    
   136.9608     ,   197.7186    
   139.3144     ,   12.31683    
   141.6671     ,   35.49487    
   144.0190     ,   98.76810    
   146.3699     ,   173.4612    
   148.7200     ,   138.7572    
   151.0692     ,   126.3582    
   153.4175     ,   272.7361    
   155.7649     ,   290.7989    
   158.1114     ,   277.3896    
   160.4571     ,   285.5552    
   162.8019     ,   45.53331    
   165.1458     ,   195.7573    
   167.4888     ,   98.51367    
   169.8309     ,   79.44823    
   172.1721     ,   196.8451    
   174.5125     ,   140.2036    
   176.8520     ,   103.4086    
   179.1906     ,   255.1646    
   181.5284     ,   124.4098    
   183.8652     ,   56.86306    
   186.2012     ,   84.50488    
   188.5363     ,   11.83935    
   190.8706     ,   79.55481    
   193.2039     ,   57.32990    
   195.5364     ,   57.09938    
   197.8680     ,   174.3790    
   200.1987     ,   557.4307    
   202.5286     ,   778.7195    
   204.8575     ,   1179.202    
   207.1856     ,   1655.372    
   209.5129     ,   1752.952    
   211.8392     ,   1914.307    
   214.1647     ,   1869.268    
   216.4893     ,   1527.407    
   218.8130     ,   1077.623    
   221.1359     ,   702.6354    
   223.4579     ,   581.0034    
   225.7790     ,   370.3971    
   228.0993     ,   311.3012    
   230.4187     ,   255.5814    
   232.7372     ,   216.0845    
   235.0548     ,   419.5752    
   237.3716     ,   419.7757    
   239.6875     ,   263.0369    
   242.0025     ,   465.5163    
   244.3167     ,   393.2455    
   246.6300     ,   429.0025    
   248.9424     ,   383.3886    
   251.2540     ,   517.8358    
   253.5647     ,   358.2926    
   255.8745     ,   257.5028    
   258.1835     ,   391.4831    
   260.4916     ,   393.9786    
   262.7988     ,   592.7885    
   265.1052     ,   734.2675    
   267.4107     ,   775.9383    
   269.7153     ,   672.9440    
   272.0191     ,   681.1989    
   274.3220     ,   817.9228    
   276.6241     ,   655.4722    
   278.9252     ,   708.6844    
   281.2256     ,   663.4311    
   283.5250     ,   686.0222    
   285.8236     ,   831.4336    
   288.1214     ,   877.0306    
   290.4182     ,   836.1729    
   292.7143     ,   981.5364    
   295.0094     ,   960.3572    
   297.3037     ,   1150.153    
   299.5971     ,   1147.759    
   301.8897     ,   1147.798    
   304.1815     ,   1219.232    
   306.4723     ,   1323.935    
   308.7623     ,   1421.727    
   311.0515     ,   1800.229    
   313.3398     ,   2357.803    
   315.6272     ,   3161.025    
   317.9138     ,   4233.943    
   320.1995     ,   6001.458    
   322.4843     ,   7889.792    
   324.7684     ,   9101.821    
   327.0515     ,   9984.251    
   329.3338     ,   9316.591    
   331.6153     ,   8077.690    
   333.8958     ,   6115.814    
   336.1756     ,   4494.282    
   338.4545     ,   3021.558    
   340.7325     ,   2052.264    
   343.0097     ,   1889.699    
   345.2860     ,   1565.710    
   347.5615     ,   1467.883    
   349.8361     ,   1163.947    
   352.1099     ,   1175.086    
   354.3828     ,   1080.665    
   356.6549     ,   1115.919    
   358.9261     ,   1092.255    
   361.1965     ,   1119.033    
   363.4660     ,   1002.651    
   365.7347     ,   1023.892    
   368.0025     ,   859.5780    
   370.2695     ,   858.3317    
   372.5356     ,   1063.344    
   374.8009     ,   784.5531    
   377.0653     ,   914.0945    
   379.3289     ,   985.9820    
   381.5916     ,   1102.986    
   383.8535     ,   1109.349    
   386.1146     ,   1065.785    
   388.3748     ,   1062.866    
   390.6342     ,   1028.408    
   392.8927     ,   1109.025    
   395.1504     ,   977.5579    
   397.4072     ,   1006.417    
   399.6632     ,   1041.942    
   401.9183     ,   1013.446    
   404.1726     ,   983.2844    
   406.4261     ,   993.2581    
   408.6787     ,   1034.153    
   410.9305     ,   817.9620    
   413.1814     ,   994.7360    
   415.4315     ,   900.9739    
   417.6807     ,   1005.730    
   419.9291     ,   898.5764    
   422.1767     ,   766.1737    
   424.4234     ,   777.3745    
   426.6693     ,   825.7949    
   428.9143     ,   759.0033    
   431.1586     ,   662.1335    
   433.4019     ,   582.1184    
   435.6445     ,   521.4188    
   437.8862     ,   399.0027    
   440.1270     ,   286.7117    
   442.3670     ,   363.0449    
   444.6062     ,   299.1760    
   446.8446     ,   275.7307    
   449.0821     ,   255.5762    
   451.3188     ,   340.2190    
   453.5546     ,   458.9479    
   455.7896     ,   382.4555    
   458.0238     ,   310.6047    
   460.2571     ,   212.5314    
   462.4897     ,   308.4898    
   464.7213     ,   319.1653    
   466.9522     ,   263.2463    
   469.1822     ,   214.8231    
   471.4113     ,   221.8196    
   473.6397     ,   390.3264    
   475.8672     ,   373.9631    
   478.0939     ,   529.2623    
   480.3197     ,   278.0950    
   482.5448     ,   289.9795    
   484.7690     ,   359.9343    
   486.9923     ,   121.0817    
   489.2148     ,   243.5972    
   491.4366     ,   188.6042    
   493.6574     ,   150.4058    
   495.8775     ,   236.0073    
   498.0967     ,   328.9139    
   500.3151     ,   204.3671    
   502.5326     ,   230.7019    
   504.7494     ,   136.5418    
   506.9653     ,   185.3820    
   509.1803     ,   161.4143    
   511.3946     ,   252.9412    
   513.6080     ,   323.8939    
   515.8206     ,   346.5751    
   518.0324     ,   347.4736    
   520.2433     ,   202.5955    
   522.4535     ,   254.8014    
   524.6628     ,   146.4448    
   526.8713     ,   73.48523    
   529.0789     ,   80.70642    
   531.2858     ,   11.54260    
   533.4918     ,   8.462585    
   535.6970     ,   165.4973    
   537.9013     ,   140.7043    
   540.1049     ,   180.3013    
   542.3076     ,   139.2711    
   544.5095     ,   30.10468    
   546.7106     ,   87.05444    
   548.9108     ,   38.27960    
   551.1103     ,   170.3052    
   553.3089     ,   65.98999    
   555.5067     ,   137.9596    
   557.7037     ,   34.76343    
   559.8998     ,   52.84821    
   562.0952     ,   97.54810    
   564.2897     ,   39.62988    
   566.4835     ,   18.62762    
   568.6763     ,   15.26935    
   570.8684     ,   21.36816    
   573.0597     ,   39.34644    
   575.2501     ,   90.95844    
   577.4398     ,   29.82794    
   579.6286     ,   78.57587    
   581.8166     ,   120.8692    
   584.0038     ,   155.5208    
   586.1901     ,   120.8839    
   588.3757     ,   153.7010    
   590.5604     ,   12.25549    
   592.7444     ,   70.79846    
   594.9275     ,   72.26959    
   597.1098     ,   87.88629    
   599.2913     ,   66.54724    
   601.4719     ,   114.8136    
   603.6518     ,   22.19482    
   605.8309     ,   29.68274    
   608.0091     ,   22.55634    
   610.1865     ,   110.3758    
   612.3632     ,   114.8413    
   614.5390     ,   155.4794    
   616.7140     ,   224.6356    
   618.8882     ,   93.52722    
   621.0616     ,   208.7378    
   623.2341     ,   188.9992    
   625.4059     ,   226.4301    
   627.5768     ,   376.7783    
   629.7470     ,   430.4304    
   631.9164     ,   450.1099    
   634.0849     ,   189.6741    
   636.2526     ,   280.8246    
   638.4196     ,   487.9362    
   640.5856     ,   485.8400    
   642.7510     ,   368.4138    
   644.9155     ,   348.7169    
   647.0792     ,   275.9677    
   649.2421     ,   291.5068    
   651.4042     ,   360.6234    
   653.5654     ,   254.6660    
   655.7260     ,   379.6978    
   657.8856     ,   437.0808    
   660.0445     ,   387.1151    
   662.2026     ,   349.6833    
   664.3598     ,   438.9274    
   666.5163     ,   423.9709    
   668.6719     ,   361.4783    
   670.8268     ,   400.1600    
   672.9809     ,   471.4637    
   675.1342     ,   593.3478    
   677.2866     ,   520.1376    
   679.4383     ,   544.0911    
   681.5891     ,   289.2381    
   683.7392     ,   282.0427    
   685.8885     ,   341.8810    
   688.0369     ,   161.5181    
   690.1846     ,   190.5668    
   692.3315     ,   265.1787    
   694.4775     ,   360.0815    
   696.6228     ,   442.9822    
   698.7673     ,   361.1384    
   700.9109     ,   485.0116    
   703.0538     ,   586.4268    
   705.1959     ,   487.3086    
   707.3372     ,   494.9350    
   709.4777     ,   577.6969    
   711.6174     ,   557.5550    
   713.7563     ,   476.7911    
   715.8944     ,   743.4082    
   718.0317     ,   695.6666    
   720.1682     ,   994.6503    
   722.3040     ,   1052.951    
   724.4389     ,   1284.054    
   726.5731     ,   1252.774    
   728.7064     ,   1478.907    
   730.8389     ,   1483.216    
   732.9707     ,   1735.140    
   735.1017     ,   1825.565    
   737.2319     ,   1746.350    
   739.3613     ,   1797.528    
   741.4899     ,   1656.329    
   743.6177     ,   1378.040    
   745.7447     ,   1450.180    
   747.8709     ,   1260.169    
   749.9963     ,   1206.630    
   752.1210     ,   923.8958    
   754.2448     ,   933.6204    
   756.3679     ,   865.0663    
   758.4902     ,   679.5489    
   760.6117     ,   708.5140    
   762.7324     ,   659.4305    
   764.8523     ,   605.6668    
   766.9714     ,   651.9122    
   769.0898     ,   581.2257    
   771.2073     ,   618.3527    
   773.3241     ,   661.1376    
   775.4401     ,   591.5635    
   777.5553     ,   522.5690    
   779.6697     ,   579.5714    
   781.7834     ,   452.3618    
   783.8962     ,   503.2991    
   786.0083     ,   274.4253    
   788.1196     ,   238.9856    
   790.2300     ,   258.7170    
   792.3398     ,   425.1086    
   794.4487     ,   374.7085    
   796.5568     ,   455.7907    
   798.6642     ,   297.0414    
   800.7708     ,   569.1658    
   802.8766     ,   346.5187    
   804.9816     ,   540.7742    
   807.0859     ,   275.5569    
   809.1893     ,   515.9111    
   811.2920     ,   471.8852    
   813.3939     ,   423.5839    
   815.4951     ,   313.1420    
   817.5954     ,   524.5038    
   819.6949     ,   519.6167    
   821.7937     ,   455.6183    
   823.8917     ,   569.3452    
   825.9890     ,   394.5655    
   828.0854     ,   562.5797    
   830.1811     ,   502.2779    
   832.2759     ,   435.2499    
   834.3701     ,   515.4797    
   836.4634     ,   489.2958    
   838.5560     ,   473.2611    
   840.6478     ,   441.5503    
   842.7388     ,   480.4621    
   844.8290     ,   527.5967    
   846.9185     ,   279.9708    
   849.0072     ,   320.0594    
   851.0951     ,   347.8963    
   853.1823     ,   436.8984    
   855.2686     ,   306.0876    
   857.3542     ,   299.4977    
   859.4390     ,   359.5707    
   861.5231     ,   373.9097    
   863.6063     ,   200.2563    
   865.6888     ,   406.9564    
   867.7706     ,   309.8526    
   869.8516     ,   271.4115    
   871.9318     ,   397.1323    
   874.0112     ,   401.4994    
   876.0898     ,   436.3733    
   878.1677     ,   438.0438    
   880.2448     ,   282.2378    
   882.3211     ,   161.8586    
   884.3967     ,   208.2162    
   886.4715     ,   311.0435    
   888.5455     ,   169.1110    
   890.6188     ,   250.8461    
   892.6913     ,   389.6093    
   894.7630     ,   280.4992    
   896.8340     ,   168.9473    
   898.9042     ,   240.4613    
   900.9736     ,   215.2025    
   903.0422     ,   168.6614    
   905.1101     ,   262.1456    
   907.1772     ,   196.9208    
   909.2436     ,   279.4450    
   911.3092     ,   270.9926    
   913.3740     ,   174.1289    
   915.4381     ,   215.6893    
   917.5014     ,   342.7270    
   919.5639     ,   72.03119    
   921.6257     ,   117.7105    
   923.6867     ,   174.1069    
   925.7469     ,   107.2099    
   927.8065     ,   88.80914    
   929.8652     ,   250.3348    
   931.9231     ,   223.3412    
   933.9803     ,   157.8397    
   936.0367     ,   160.3366    
   938.0924     ,   96.06314    
   940.1473     ,   54.83223    
   942.2015     ,   194.4043    
   944.2549     ,   62.23570    
   946.3075     ,   106.1689    
   948.3594     ,   36.93468    
   950.4105     ,   104.9448    
   952.4608     ,   19.23961    
   954.5104     ,   105.4472    
   956.5593     ,   56.81935    
   958.6074     ,   36.51515    
   960.6547     ,   51.81538    
   962.7012     ,   27.24159    
   964.7470     ,   59.23282    
   966.7921     ,   22.56691    
   968.8364     ,   85.37448    
   970.8799     ,   30.94916    
   972.9227     ,   122.8821    
   974.9647     ,   112.7502    
   977.0059     ,   112.5320    
   979.0464     ,   80.62335    
   981.0862     ,   98.06309    
   983.1252     ,   15.04031    
   985.1635     ,   79.27379    
   987.2009     ,   101.2198    
   989.2377     ,   57.90598    
   991.2737     ,   106.0337    
   993.3089     ,   20.24627    
   995.3434     ,   137.0686    
   997.3771     ,   83.78522    
   999.4100     ,   19.27534    
   1001.442     ,   68.64279    
   1003.474     ,   114.3720    
   1005.504     ,   51.68298    
   1007.534     ,   73.25930    
   1009.564     ,   151.2041    
   1011.592     ,   72.08089    
   1013.620     ,   41.06947    
   1015.647     ,   143.5390    
   1017.673     ,   139.7643    
   1019.698     ,   85.83936    
   1021.723     ,   83.36949    
   1023.747     ,   270.1974    
   1025.770     ,   34.00677    
   1027.793     ,   127.9515    
   1029.815     ,   27.90192    
   1031.836     ,   317.5158    
   1033.856     ,   140.5817    
   1035.875     ,   61.34637    
   1037.894     ,   61.63563    
   1039.912     ,   220.7997    
   1041.929     ,   317.6826    
   1043.946     ,   216.0197    
   1045.961     ,   262.8391    
   1047.976     ,   189.7607    
   1049.991     ,   22.91640    
   1052.004     ,   203.4111    
   1054.017     ,   244.7915    
   1056.029     ,   433.8342    
   1058.040     ,   328.6249    
   1060.051     ,   413.9048    
   1062.061     ,   353.9197    
   1064.070     ,   514.5844    
   1066.078     ,   591.2643    
   1068.086     ,   708.6458    
   1070.092     ,   1155.218    
   1072.099     ,   1342.196    
   1074.104     ,   1930.818    
   1076.108     ,   2563.480    
   1078.112     ,   3308.738    
   1080.115     ,   4209.765    
   1082.118     ,   5609.168    
   1084.119     ,   7187.382    
   1086.120     ,   8728.193    
   1088.120     ,   10289.09    
   1090.120     ,   11449.57    
   1092.119     ,   11623.48    
   1094.116     ,   11338.64    
   1096.114     ,   10357.81    
   1098.110     ,   9120.835    
   1100.106     ,   7268.333    
   1102.101     ,   5557.174    
   1104.095     ,   4377.166    
   1106.089     ,   3313.098    
   1108.081     ,   2467.387    
   1110.073     ,   1934.785    
   1112.065     ,   1557.865    
   1114.055     ,   1100.686    
   1116.045     ,   1002.581    
   1118.034     ,   639.0968    
   1120.023     ,   700.9244    
   1122.010     ,   473.7319    
   1123.997     ,   394.0001    
   1125.983     ,   437.5026    
   1127.969     ,   315.6458    
   1129.953     ,   362.9416    
   1131.938     ,   394.9984    
   1133.921     ,   340.7049    
   1135.903     ,   295.4946    
   1137.885     ,   306.0161    
   1139.866     ,   152.3418    
   1141.846     ,   122.7460    
   1143.826     ,   318.3129    
   1145.805     ,   127.9909    
   1147.783     ,   162.2670    
   1149.760     ,   97.06071    
   1151.737     ,   229.0758    
   1153.713     ,   166.7956    
   1155.688     ,   140.4755    
   1157.662     ,   85.01884    
   1159.636     ,   129.1779    
   1161.609     ,   132.9644    
   1163.582     ,   152.7729    
   1165.553     ,   22.85462    
   1167.524     ,   211.8437    
   1169.494     ,   45.86214    
   1171.463     ,   31.90337    
   1173.432     ,   49.67661    
   1175.400     ,   126.1852    
   1177.367     ,   52.84474    
   1179.333     ,   20.78845    
   1181.299     ,  0.8524700    
   1183.264     ,   129.4269    
   1185.229     ,   3.885937    
   1187.192     ,   75.24361    
   1189.155     ,   128.3657    
   1191.117     ,   74.13465    
   1193.078     ,   46.03465    
   1195.039     ,   137.2386    
   1196.999     ,   127.3680    
   1198.958     ,   171.3222    
   1200.917     ,   43.84102    
   1202.875     ,   163.1009    
   1204.832     ,   139.2665    
   1206.788     ,   273.4469    
   1208.744     ,   217.8522    
   1210.698     ,   242.8157    
   1212.652     ,   206.6154    
   1214.606     ,   195.6404    
   1216.559     ,   146.3019    
   1218.511     ,   331.6844    
   1220.462     ,   106.2604    
   1222.412     ,   152.7809    
   1224.362     ,   57.60028    
   1226.311     ,   188.8813    
   1228.260     ,   270.5792    
   1230.208     ,   343.1348    
   1232.154     ,   290.1791    
   1234.101     ,   252.0758    
   1236.046     ,   217.3127    
   1237.991     ,   280.6075    
   1239.935     ,   156.5464    
   1241.878     ,   230.9746    
   1243.821     ,   153.6656    
   1245.763     ,   146.3799    
   1247.704     ,   232.0453    
   1249.645     ,   356.6072    
   1251.585     ,   199.5379    
   1253.524     ,   316.2823    
   1255.462     ,   131.0718    
   1257.400     ,   77.09005    
   1259.337     ,   210.6750    
   1261.273     ,   204.0705    
   1263.208     ,   8.718356    
   1265.143     ,   197.7949    
   1267.077     ,   339.1020    
   1269.010     ,   214.1060    
   1270.943     ,   150.1870    
   1272.875     ,   83.36954    
   1274.806     ,   27.36211    
   1276.737     ,   62.67735    
   1278.667     ,   93.31599    
   1280.596     ,   215.0863    
   1282.524     ,   227.8668    
   1284.452     ,   260.7570    
   1286.379     ,   121.7899    
   1288.305     ,   158.2952    
   1290.230     ,   197.8371    
   1292.155     ,   164.8004    
   1294.079     ,   145.9602    
   1296.003     ,   1.895378    
   1297.925     ,   186.5588    
   1299.847     ,   166.0580    
   1301.769     ,   236.6053    
   1303.689     ,   159.3239    
   1305.609     ,   227.5032    
   1307.528     ,   285.2050    
   1309.447     ,   432.5143    
   1311.364     ,   355.5917    
   1313.281     ,   277.2765    
   1315.198     ,   383.5859    
   1317.113     ,   434.8150    
   1319.028     ,   547.7825    
   1320.942     ,   442.9627    
   1322.856     ,   456.5841    
   1324.769     ,   383.6533    
   1326.681     ,   405.3563    
   1328.592     ,   400.3179    
   1330.503     ,   503.8442    
   1332.413     ,   349.0156    
   1334.322     ,   483.4317    
   1336.231     ,   282.7699    
   1338.138     ,   567.8453    
   1340.046     ,   474.8268    
   1341.952     ,   365.6173    
   1343.858     ,   454.7774    
   1345.763     ,   321.8495    
   1347.667     ,   352.9161    
   1349.571     ,   448.2784    
   1351.474     ,   337.1645    
   1353.376     ,   357.9929    
   1355.277     ,   372.4403    
   1357.178     ,   345.9199    
   1359.078     ,   474.7311    
   1360.978     ,   395.0812    
   1362.877     ,   262.2641    
   1364.775     ,   282.7024    
   1366.672     ,   119.6126    
   1368.569     ,   170.3844    
   1370.464     ,   130.5429    
   1372.360     ,   195.1917    
   1374.254     ,   75.01118    
   1376.148     ,   86.76455    
   1378.041     ,   161.4648    
   1379.934     ,   105.9707    
   1381.825     ,   95.79281    
   1383.717     ,   159.7129    
   1385.607     ,   131.0676    
   1387.496     ,   5.267148    
   1389.385     ,   121.1040    
   1391.274     ,   102.8367    
   1393.161     ,   32.06076    
   1395.048     ,   57.45010    
   1396.934     ,   1.807567    
   1398.820     ,   41.25336    
   1400.705     ,   21.46178    
   1402.589     ,   17.82470    
   1404.472     ,   64.81948    
   1406.355     ,   145.4018    
   1408.237     ,   147.5557    
   1410.118     ,   77.58842    
   1411.999     ,   5.871923    
   1413.879     ,   4.643895    
   1415.758     ,   93.65600    
   1417.636     ,   121.7615    
   1419.514     ,   63.35714    
   1421.391     ,   127.4316    
   1423.268     ,   49.00515    
   1425.144     ,   24.96667    
   1427.019     ,   140.3401    
   1428.893     ,   134.5312    
   1430.767     ,   75.74654    
   1432.640     ,   43.34694    
   1434.512     ,   262.8780    
   1436.384     ,   359.0042    
   1438.255     ,   127.7766    
   1440.125     ,   424.9732    
   1441.995     ,   379.8731    
   1443.863     ,   506.6636    
   1445.732     ,   407.0307    
   1447.599     ,   365.5118    
   1449.466     ,   223.3495    
   1451.332     ,   416.6465    
   1453.198     ,   206.1357    
   1455.062     ,   241.8051    
   1456.926     ,   281.5345    
   1458.790     ,   252.5752    
   1460.652     ,   110.7154    
   1462.514     ,   191.8690    
   1464.376     ,   274.7989    
   1466.236     ,   331.3011    
   1468.096     ,   353.7096    
   1469.955     ,   212.9338    
   1471.814     ,   315.5939    
   1473.672     ,   417.2636    
   1475.529     ,   305.5425    
   1477.386     ,   240.2596    
   1479.241     ,   63.50040    
   1481.097     ,   103.7238    
   1482.951     ,   243.9808    
   1484.805     ,   78.72462    
   1486.658     ,   119.5286    
   1488.510     ,   230.8589    
   1490.362     ,   146.3265    
   1492.213     ,   61.48180    
   1494.064     ,   32.86372    
   1495.913     ,   15.29104    
   1497.762     ,   2.581142    
   1499.611     ,   99.02693    
   1501.458     ,   45.10015    
   1503.305     ,   185.0658    
   1505.151     ,   116.0877    
   1506.997     ,   52.98950    
   1508.842     ,   90.34505    
   1510.686     ,   147.0376    
   1512.530     ,   6.238781    
   1514.373     ,   138.5901    
   1516.215     ,   7.845306    
   1518.057     ,   74.82465    
   1519.897     ,   38.77910    
   1521.738     ,   34.32247    
   1523.577     ,   31.73509    
   1525.416     ,   169.4159    
   1527.254     ,   179.3159    
   1529.091     ,   257.2922    
   1530.928     ,   112.8239    
   1532.764     ,   291.5722    
   1534.600     ,   260.7536    
   1536.435     ,   181.0304    
   1538.269     ,   35.07074    
   1540.102     ,   131.5716    
   1541.935     ,   41.21838    
   1543.767     ,   284.4527    
   1545.598     ,   228.1522    
   1547.429     ,   61.69332    
   1549.259     ,   236.1071    
   1551.088     ,   351.2023    
   1552.917     ,   228.8751    
   1554.745     ,   372.8824    
   1556.572     ,   342.0147    
   1558.399     ,   139.7410    
   1560.225     ,   399.4091    
   1562.050     ,   451.3564    
   1563.875     ,   334.8350    
   1565.699     ,   261.0878    
   1567.522     ,   378.1431    
   1569.345     ,   378.6599    
   1571.167     ,   372.1700    
   1572.988     ,   429.9429    
   1574.809     ,   269.1275    
   1576.629     ,   368.4132    
   1578.448     ,   292.1594    
   1580.267     ,   235.3721    
   1582.085     ,   351.8771    
   1583.902     ,   431.8618    
   1585.718     ,   423.0636    
   1587.534     ,   309.3865    
   1589.350     ,   275.8537    
   1591.164     ,   397.8109    
   1592.978     ,   310.2782    
   1594.791     ,   289.3232    
   1596.604     ,   356.4134    
   1598.416     ,   527.8136    
   1600.227     ,   409.6483    
   1602.038     ,   194.6902    
   1603.848     ,   352.6405    
   1605.657     ,   321.1660    
   1607.466     ,   310.6318    
   1609.273     ,   282.8001    
   1611.081     ,   271.7511    
   1612.887     ,   249.7572    
   1614.693     ,   214.5536    
   1616.499     ,   220.8244    
   1618.303     ,   201.1668    
   1620.107     ,   233.7764    
   1621.910     ,   210.2274    
   1623.713     ,   243.5737    
   1625.515     ,   307.5654    
   1627.316     ,   427.4679    
   1629.117     ,   288.2191    
   1630.917     ,   357.8279    
   1632.716     ,   157.1931    
   1634.515     ,   320.0018    
   1636.312     ,   130.0846    
   1638.110     ,   110.0731    
   1639.906     ,   400.0238    
   1641.703     ,   380.5834    
   1643.498     ,   137.4930    
   1645.292     ,   263.6794    
   1647.086     ,   181.0996    
   1648.880     ,   199.8797    
   1650.672     ,   134.9836    
   1652.464     ,   271.2620    
   1654.256     ,   100.9299    
   1656.047     ,   219.5376    
   1657.837     ,   155.4657    
   1659.626     ,   370.5631    
   1661.415     ,   184.4836    
   1663.203     ,   384.9149    
   1664.990     ,   210.6143    
   1666.777     ,   267.2418    
   1668.563     ,   218.8082    
   1670.348     ,   240.0447    
   1672.133     ,   330.1761    
   1673.917     ,   294.1699    
   1675.701     ,   405.9238    
   1677.483     ,   401.8241    
   1679.266     ,   290.1066    
   1681.047     ,   359.4474    
   1682.828     ,   268.2419    
   1684.608     ,   471.3289    
   1686.388     ,   100.8402    
   1688.166     ,   137.9764    
   1689.945     ,   297.3779    
   1691.722     ,   494.1050    
   1693.499     ,   301.4216    
   1695.275     ,   390.9437    
   1697.051     ,   238.0064    
   1698.826     ,   337.6636    
   1700.600     ,   322.2530    
   1702.374     ,   239.7107    
   1704.147     ,   336.4671    
   1705.919     ,   176.6061    
   1707.691     ,   277.1104    
   1709.462     ,   328.7817    
   1711.232     ,   259.9961    
   1713.002     ,   153.0068    
   1714.771     ,   335.7706    
   1716.539     ,   205.0985    
   1718.307     ,   221.1464    
   1720.074     ,   215.5917    
   1721.840     ,   107.9462    
   1723.606     ,   124.7565    
   1725.371     ,   225.2072    
   1727.136     ,   232.2917    
   1728.900     ,   285.5346    
   1730.663     ,   335.2855    
   1732.426     ,   79.97958    
   1734.187     ,   213.3249    
   1735.949     ,   142.5330    
   1737.709     ,   131.8233    
   1739.469     ,   81.98668    
   1741.229     ,   278.7046    
   1742.987     ,   111.8413    
   1744.745     ,   228.2585    
   1746.503     ,   138.0057    
   1748.259     ,   388.0878    
   1750.015     ,   449.7254    
   1751.771     ,   394.0309    
   1753.526     ,   279.5325    
   1755.280     ,   441.8577    
   1757.033     ,   405.5451    
   1758.786     ,   384.2227    
   1760.538     ,   473.9485    
   1762.290     ,   344.3509    
   1764.041     ,   190.0162    
   1765.791     ,   221.8709    
   1767.541     ,   399.3906    
   1769.289     ,   197.8291    
   1771.038     ,   120.1592    
   1772.786     ,   309.4548    
   1774.532     ,   114.7203    
   1776.279     ,   265.6540    
   1778.025     ,   177.2965    
   1779.770     ,   13.60210    
   1781.514     ,   154.7294    
   1783.258     ,   94.83752    
   1785.001     ,   40.93529    
   1786.744     ,   183.5795    
   1788.486     ,   50.35493    
   1790.227     ,   22.27014    
   1791.968     ,   8.241165    
   1793.708     ,   37.25974    
   1795.447     ,   133.3231    
   1797.185     ,   61.17049    
   1798.924     ,   162.8602    
   1800.661     ,   98.38426    
   1802.398     ,   119.8888    
   1804.134     ,   92.71507    
   1805.869     ,   155.9421    
   1807.604     ,   113.4137    
   1809.338     ,   84.19563    
   1811.072     ,   116.8733    
   1812.805     ,   181.5765    
   1814.537     ,   82.31775    
   1816.269     ,   123.5461    
   1818.000     ,   100.8590    
   1819.730     ,   122.8490    
   1821.460     ,   48.25429    
   1823.189     ,   113.8038    
   1824.917     ,   201.9109    
   1826.645     ,   116.3037    
   1828.373     ,   140.9431    
   1830.099     ,   46.76713    
   1831.825     ,   105.3741    
   1833.550     ,   23.43077    
   1835.275     ,   67.21507    
   1836.999     ,   102.9106    
   1838.722     ,   50.91879    
   1840.445     ,   1.597321    
   1842.167     ,   71.52168    
   1843.889     ,   100.2442    
   1845.609     ,   16.99374    
   1847.330     ,   7.976791    
   1849.049     ,   144.4381    
   1850.768     ,   54.79408    
   1852.486     ,   37.83607    
   1854.204     ,   91.18999    
   1855.921     ,   60.63005    
   1857.638     ,   202.8103    
   1859.353     ,   85.73216    
   1861.068     ,   42.83752    
   1862.783     ,   381.2430    
   1864.497     ,   139.9925    
   1866.210     ,   61.33983    
   1867.923     ,   177.0757    
   1869.635     ,   104.8650    
   1871.346     ,   230.1536    
   1873.057     ,   139.1065    
   1874.767     ,   375.0294    
   1876.476     ,   236.8358    
   1878.185     ,   13.28340    
   1879.893     ,   217.9039    
   1881.601     ,   87.07951    
   1883.308     ,   169.1406    
   1885.014     ,   163.5025    
   1886.720     ,   18.34689    
   1888.425     ,   258.8199    
   1890.129     ,   113.1209    
   1891.833     ,   148.5278    
   1893.536     ,   193.3040    
   1895.239     ,   115.4190    
   1896.941     ,   278.7538    
   1898.642     ,   293.9795    
   1900.343     ,   153.1364    
   1902.043     ,   182.5855    
   1903.742     ,   498.0862    
   1905.441     ,   301.7638    
   1907.139     ,   249.0094    
   1908.837     ,   170.0483    
   1910.533     ,   348.1839    
   1912.230     ,   187.0431    
   1913.925     ,   274.1311    
   1915.620     ,   215.3748    
   1917.315     ,   199.4892    
   1919.009     ,   275.8943    
   1920.702     ,   243.7981    
   1922.394     ,   170.0245    
   1924.086     ,   184.8864    
   1925.777     ,   195.7151    
   1927.468     ,   193.4737    
   1929.158     ,   239.2900    
   1930.847     ,   415.8383    
   1932.536     ,   238.4906    
   1934.224     ,   276.8005    
   1935.912     ,   273.6725    
   1937.599     ,   276.2447    
   1939.285     ,   266.7824    
   1940.971     ,   282.8422    
   1942.656     ,   367.5930    
   1944.340     ,   406.1072    
   1946.024     ,   215.9937    
   1947.707     ,   331.0245    
   1949.390     ,   291.1639    
   1951.072     ,   308.5819    
   1952.753     ,   176.5874    
   1954.434     ,   260.9370    
   1956.114     ,   265.9471    
   1957.793     ,   243.8273    
   1959.472     ,   361.7175    
   1961.150     ,   269.5251    
   1962.828     ,   247.2309    
   1964.505     ,   175.0325    
   1966.181     ,   218.7763    
   1967.857     ,   356.0915    
   1969.532     ,   333.4025    
   1971.207     ,   298.7774    
   1972.881     ,   234.7876    
   1974.554     ,   304.6126    
   1976.227     ,   285.4922    
   1977.899     ,   416.5073    
   1979.570     ,   203.6929    
   1981.241     ,   263.1172    
   1982.911     ,   106.1371    
   1984.581     ,   473.3507    
   1986.250     ,   254.2653    
   1987.918     ,   218.2946    
   1989.586     ,   330.3236    
   1991.253     ,   272.3419    
   1992.919     ,   305.8966    
   1994.585     ,   240.1194    
   1996.250     ,   376.6588    
   1997.915     ,   365.4750    
   1999.579     ,   433.8018    
   2001.243     ,   301.3612    
   2002.906     ,   422.9818    
   2004.568     ,   440.2545    
   2006.229     ,   201.4622    
   2007.890     ,   398.8232    
   2009.551     ,   274.1703    
   2011.210     ,   226.1640    
   2012.870     ,   398.5488    
   2014.528     ,   370.7434    
   2016.186     ,   145.5384    
   2017.843     ,   481.1123    
   2019.500     ,   321.3177    
   2021.156     ,   251.0865    
   2022.811     ,   295.4514    
   2024.466     ,   215.2154    
   2026.121     ,   375.5600    
   2027.774     ,   473.6447    
   2029.427     ,   432.9096    
   2031.080     ,   165.1139    
   2032.731     ,   269.0534    
   2034.383     ,   245.1080    
   2036.033     ,   300.0998    
   2037.683     ,   251.7142    
   2039.333     ,   172.6001    
   2040.981     ,   281.3069    
   2042.629     ,   302.0370    
   2044.277     ,   298.7745    
   2045.924     ,   157.8924    
   2047.570     ,   304.5733    
   2049.216     ,   301.4034    
   2050.861     ,   257.7107    
   2052.506     ,   228.3482    
   2054.149     ,   81.71535    
   2055.793     ,   1.973419    
   2057.436     ,   82.32719    
   2059.077     ,   287.4319    
   2060.719     ,   157.0311    
   2062.360     ,   46.02568    
   2064.000     ,   132.1100    
   2065.640     ,   7.043449    
   2067.279     ,   102.5243    
   2068.917     ,   207.7147    
   2070.555     ,   323.7504    
   2072.192     ,   225.8910    
   2073.829     ,   238.5562    
   2075.465     ,   59.64188    
   2077.100     ,   171.9276    
   2078.735     ,   45.67077    
   2080.369     ,   38.61713    
   2082.003     ,   45.68771    
   2083.636     ,   297.6818    
   2085.268     ,   189.9745    
   2086.900     ,   237.4154    
   2088.531     ,   126.0683    
   2090.162     ,   38.92624    
   2091.792     ,   132.8568    
   2093.421     ,   208.9339    
   2095.050     ,   120.7429    
   2096.678     ,   63.43606    
   2098.306     ,   268.3986    
   2099.933     ,   282.3838    
   2101.559     ,   207.2149    
   2103.185     ,   232.4259    
   2104.810     ,   167.7766    
   2106.435     ,   271.5248    
   2108.059     ,   233.8928    
   2109.682     ,   109.0969    
   2111.305     ,   67.81268    
   2112.927     ,   284.2251    
   2114.549     ,   270.9997    
   2116.169     ,   309.8812    
   2117.790     ,   116.5422    
   2119.410     ,   280.7280    
   2121.029     ,   220.7305    
   2122.647     ,   202.1944    
   2124.265     ,   173.3632    
   2125.883     ,   197.3316    
   2127.500     ,   159.3299    
   2129.116     ,   203.9072    
   2130.731     ,   278.3479    
   2132.346     ,   233.3581    
   2133.961     ,   225.4463    
   2135.574     ,   211.1568    
   2137.188     ,   225.8150    
   2138.800     ,   279.0950    
   2140.412     ,   241.2747    
   2142.024     ,   264.2160    
   2143.635     ,   319.5076    
   2145.245     ,   180.2918    
   2146.854     ,   262.9801    
   2148.464     ,   274.2972    
   2150.072     ,   244.7160    
   2151.680     ,   401.5706    
   2153.287     ,   174.1075    
   2154.894     ,   377.2146    
   2156.500     ,   158.7426    
   2158.105     ,   335.8593    
   2159.710     ,   278.8411    
   2161.314     ,   106.6506    
   2162.918     ,   343.9254    
   2164.521     ,   195.7180    
   2166.124     ,   222.6563    
   2167.726     ,   20.01476    
   2169.327     ,   184.1780    
   2170.927     ,   176.3355    
   2172.528     ,   150.5847    
   2174.127     ,   71.29839    
   2175.726     ,   261.0259    
   2177.324     ,   110.3735    
   2178.922     ,   199.9810    
   2180.520     ,   177.8323    
   2182.116     ,   12.59665    
   2183.712     ,   292.4905    
   2185.307     ,   207.8832    
   2186.902     ,   258.9748    
   2188.497     ,   249.6162    
   2190.090     ,   181.6024    
   2191.683     ,   133.1661    
   2193.276     ,   227.5752    
   2194.867     ,   82.47772    
   2196.459     ,   372.5016    
   2198.049     ,   31.60056    
   2199.639     ,   49.29838    
   2201.229     ,   208.5910    
   2202.818     ,   36.58375    
   2204.406     ,  0.6490970    
   2205.994     ,   92.63238    
   2207.581     ,   235.1434    
   2209.168     ,   265.3172    
   2210.754     ,   203.6541    
   2212.339     ,   49.04686    
   2213.924     ,   16.02752    
   2215.508     ,   167.6258    
   2217.092     ,   25.74183    
   2218.675     ,   244.6994    
   2220.257     ,   50.44030    
   2221.839     ,   12.23859    
   2223.420     ,   49.95294    
   2225.001     ,   9.387726    
   2226.581     ,   102.8251    
   2228.161     ,   158.3026    
   2229.740     ,   53.90435    
   2231.318     ,   122.8145    
   2232.896     ,   213.4699    
   2234.473     ,   349.9101    
   2236.050     ,   153.3003    
   2237.626     ,   120.7564    
   2239.201     ,   157.0358    
   2240.776     ,   142.9942    
   2242.350     ,   180.7933    
   2243.924     ,   263.1936    
   2245.497     ,   235.0767    
   2247.070     ,   165.1998    
   2248.642     ,   198.4805    
   2250.213     ,   295.0037    
   2251.784     ,   130.4567    
   2253.354     ,   211.9575    
   2254.924     ,   172.1981    
   2256.492     ,   149.2928    
   2258.061     ,   110.5751    
   2259.629     ,   290.1985    
   2261.196     ,   197.4870    
   2262.763     ,   249.2176    
   2264.329     ,   251.5668    
   2265.895     ,   215.1430    
   2267.459     ,   125.6757    
   2269.024     ,   225.9505    
   2270.588     ,   377.1460    
   2272.151     ,   235.7115    
   2273.714     ,   277.0136    
   2275.276     ,   232.6535    
   2276.837     ,   186.4835    
   2278.398     ,   362.9602    
   2279.958     ,   168.4893    
   2281.518     ,   170.4215    
   2283.077     ,   153.1105    
   2284.636     ,   379.9453    
   2286.194     ,   189.2578    
   2287.751     ,   145.2823    
   2289.308     ,   289.4345    
   2290.865     ,   365.7387    
   2292.420     ,   181.4734    
   2293.975     ,   240.0874    
   2295.530     ,   134.2749    
   2297.084     ,   46.13497    
   2298.637     ,   57.37646    
   2300.190     ,   304.3392    
   2301.742     ,   139.4583    
   2303.294     ,   319.1127    
   2304.845     ,   277.0633    
   2306.396     ,   61.70211    
   2307.946     ,   214.3026    
   2309.495     ,   171.2170    
   2311.044     ,   264.6455    
   2312.592     ,   292.6063    
   2314.140     ,   260.6724    
   2315.687     ,   246.9449    
   2317.233     ,   258.2253    
   2318.779     ,   104.7861    
   2320.325     ,   146.5135    
   2321.869     ,   366.6299    
   2323.414     ,   286.7331    
   2324.957     ,   124.8073    
   2326.500     ,   151.7990    
   2328.043     ,   222.8863    
   2329.585     ,   382.9611    
   2331.126     ,   120.1958    
   2332.667     ,   238.7411    
   2334.207     ,   222.0027    
   2335.747     ,   13.85796    
   2337.286     ,   87.94868    
   2338.824     ,   213.5115    
   2340.362     ,   226.3143    
   2341.899     ,   103.8539    
   2343.436     ,   192.3637    
   2344.972     ,   200.6378    
   2346.508     ,   179.0775    
   2348.043     ,   182.7083    
   2349.578     ,   169.8341    
   2351.112     ,   148.7887    
   2352.645     ,   194.0348    
   2354.178     ,   89.67863    
   2355.710     ,   231.9920    
   2357.242     ,   8.100989    
   2358.773     ,   77.82110    
   2360.303     ,   195.7135    
   2361.833     ,   57.52609    
   2363.363     ,   18.39182    
   2364.891     ,   264.3380    
   2366.420     ,   7.748502    
   2367.947     ,   31.50632    
   2369.474     ,   168.7668    
   2371.001     ,   201.6372    
   2372.527     ,   6.085581    
   2374.052     ,   99.43310    
   2375.577     ,   71.53944    
   2377.101     ,   158.0314    
   2378.625     ,   73.65365    
   2380.148     ,   291.6837    
   2381.671     ,   141.1458    
   2383.193     ,   199.2819    
   2384.714     ,   22.86987    
   2386.235     ,   92.00941    
   2387.755     ,   20.20963    
   2389.275     ,   105.4595    
   2390.794     ,   85.11478    
   2392.313     ,   466.2706    
   2393.831     ,   129.8954    
   2395.348     ,   239.7267    
   2396.865     ,   175.3444    
   2398.382     ,   264.7964    
   2399.897     ,   92.41074    
   2401.413     ,   261.1501    
   2402.927     ,   31.36620    
   2404.441     ,   368.9389    
   2405.955     ,   226.6356    
   2407.468     ,   105.1354    
   2408.980     ,   192.5697    
   2410.492     ,   41.77615    
   2412.004     ,   149.5878    
   2413.514     ,   250.2006    
   2415.024     ,   41.90386    
   2416.534     ,   102.3986    
   2418.043     ,   64.84988    
   2419.552     ,   247.8089    
   2421.060     ,   38.98157    
   2422.567     ,   234.1041    
   2424.074     ,   156.8878    
   2425.580     ,   90.46893    
   2427.085     ,   99.32255    
   2428.591     ,   123.5325    
   2430.095     ,   238.1763    
   2431.599     ,   41.76215    
   2433.103     ,   87.67365    
   2434.605     ,   213.8496    
   2436.108     ,   75.22084    
   2437.610     ,   178.6579    
   2439.111     ,   159.6398    
   2440.611     ,   157.1527    
   2442.112     ,   18.26495    
   2443.611     ,   61.73574    
   2445.110     ,   22.12754    
   2446.608     ,   34.85519    
   2448.106     ,   45.38853    
   2449.604     ,   285.7247    
   2451.100     ,   82.95181    
   2452.596     ,   314.7920    
   2454.092     ,   189.7844    
   2455.587     ,   248.8934    
   2457.082     ,   36.52786    
   2458.575     ,   171.5105    
   2460.069     ,   61.01840    
   2461.562     ,   196.0136    
   2463.054     ,   190.9846    
   2464.546     ,   37.10128    
   2466.037     ,   14.95723    
   2467.528     ,   363.4111    
   2469.018     ,   46.42260    
   2470.507     ,   238.9099    
   2471.996     ,   173.9583    
   2473.484     ,   122.4403    
   2474.972     ,   137.2136    
   2476.459     ,   183.7399    
   2477.946     ,   96.43874    
   2479.432     ,   76.26531    
   2480.918     ,   225.9458    
   2482.403     ,   174.9850    
   2483.888     ,   303.8172    
   2485.372     ,   404.8855    
   2486.855     ,   137.2973    
   2488.338     ,   313.7011    
   2489.820     ,   81.82536    
   2491.302     ,   130.6815    
   2492.783     ,   148.3132    
   2494.264     ,   288.7195    
   2495.744     ,   183.8509    
   2497.223     ,   100.6765    
   2498.702     ,   234.6716    
   2500.181     ,   233.7930    
   2501.659     ,   145.8650    
   2503.136     ,   237.5159    
   2504.613     ,   407.9764    
   2506.089     ,   250.8503    
   2507.565     ,   235.2691    
   2509.040     ,   79.73447    
   2510.514     ,   215.9137    
   2511.989     ,   159.1400    
   2513.462     ,   243.4150    
   2514.935     ,   164.7162    
   2516.407     ,   81.83593    
   2517.879     ,   152.7264    
   2519.350     ,   175.1181    
   2520.821     ,   135.3381    
   2522.291     ,   111.4070    
   2523.761     ,   190.6264    
   2525.230     ,   135.1070    
   2526.698     ,   287.7374    
   2528.167     ,   325.1835    
   2529.634     ,   444.0309    
   2531.101     ,   7.102375    
   2532.567     ,   243.0021    
   2534.033     ,   182.2020    
   2535.498     ,   124.3414    
   2536.963     ,   19.28062    
   2538.427     ,   334.2484    
   2539.891     ,   108.5293    
   2541.354     ,   102.4414    
   2542.816     ,   218.7793    
   2544.278     ,   25.31084    
   2545.740     ,   212.4000    
   2547.200     ,   207.4200    
   2548.661     ,   272.2810    
   2550.121     ,   160.4304    
   2551.580     ,   327.4498    
   2553.039     ,   208.1806    
   2554.497     ,   76.48946    
   2555.954     ,   279.7087    
   2557.411     ,   88.95602    
   2558.868     ,   55.75679    
   2560.324     ,   179.3721    
   2561.779     ,   192.2532    
   2563.234     ,   227.3347    
   2564.688     ,   208.6001    
   2566.142     ,   129.3827    
   2567.595     ,   166.2692    
   2569.048     ,   348.1658    
   2570.500     ,   186.1158    
   2571.952     ,   96.19767    
   2573.403     ,   284.3551    
   2574.854     ,   62.93338    
   2576.304     ,   100.5500    
   2577.753     ,   32.39969    
   2579.202     ,   140.5467    
   2580.650     ,   124.4663    
   2582.098     ,   153.3991    
   2583.545     ,   68.54718    
   2584.992     ,   169.1736    
   2586.438     ,   49.27719    
   2587.884     ,   81.51776    
   2589.329     ,   249.1406    
   2590.774     ,   58.23029    
   2592.218     ,   83.38969    
   2593.661     ,   222.0046    
   2595.104     ,   40.41006    
   2596.547     ,   107.7671    
   2597.989     ,   109.1841    
   2599.430     ,   96.86084    
   2600.871     ,   141.8763    
   2602.311     ,   136.4290    
   2603.751     ,   42.04308    
   2605.190     ,   67.31388    
   2606.628     ,   146.2000    
   2608.067     ,   298.2048    
   2609.504     ,   199.2422    
   2610.941     ,   220.0413    
   2612.378     ,   111.8641    
   2613.813     ,   296.0560    
   2615.249     ,   258.5267    
   2616.684     ,   258.7737    
   2618.118     ,   164.4353    
   2619.552     ,   460.1573    
   2620.985     ,   66.41238    
   2622.418     ,   167.1762    
   2623.850     ,   188.8779    
   2625.282     ,   176.0173    
   2626.713     ,   115.5978    
   2628.144     ,   318.8477    
   2629.573     ,   310.8807    
   2631.003     ,   156.0870    
   2632.432     ,   219.5120    
   2633.861     ,   315.2936    
   2635.288     ,   370.2293    
   2636.716     ,   237.4521    
   2638.143     ,   239.0578    
   2639.569     ,   33.15572    
   2640.995     ,   222.4653    
   2642.420     ,   318.1218    
   2643.844     ,   204.5038    
   2645.269     ,   295.7912    
   2646.692     ,   243.6754    
   2648.115     ,   160.5255    
   2649.538     ,   270.1021    
   2650.960     ,   266.8498    
   2652.382     ,   202.9050    
   2653.802     ,   327.6565    
   2655.223     ,   109.5734    
   2656.643     ,   167.1273    
   2658.062     ,   222.2270    
   2659.481     ,   107.9112    
   2660.899     ,   145.2437    
   2662.317     ,   342.7551    
   2663.734     ,   212.1074    
   2665.151     ,   53.87303    
   2666.567     ,   172.6558    
   2667.983     ,   210.6725    
   2669.398     ,   169.1166    
   2670.812     ,   281.4825    
   2672.226     ,   83.49426    
   2673.640     ,   312.5468    
   2675.053     ,   24.93680    
   2676.465     ,   326.4686    
   2677.877     ,   172.5774    
   2679.289     ,   120.5632    
   2680.699     ,   187.7821    
   2682.110     ,   316.2838    
   2683.520     ,   252.5403    
   2684.929     ,   246.1298    
   2686.338     ,   273.9642    
   2687.746     ,   311.5158    
   2689.154     ,   364.8861    
   2690.561     ,   194.6074    
   2691.967     ,   208.9416    
   2693.373     ,   165.9799    
   2694.779     ,   17.40524    
   2696.184     ,   276.4977    
   2697.588     ,   206.0516    
   2698.992     ,   264.2287    
   2700.396     ,   29.02617    
   2701.799     ,   152.8271    
   2703.201     ,   179.8274    
   2704.603     ,   223.0030    
   2706.004     ,   110.8708    
   2707.405     ,   87.21700    
   2708.805     ,   50.25938    
   2710.205     ,   572.2220    
   2711.604     ,   273.8800    
   2713.003     ,   317.0153    
   2714.401     ,   14.46114    
   2715.799     ,   98.62151    
   2717.196     ,   372.1816    
   2718.593     ,   331.9952    
   2719.989     ,   101.4607    
   2721.385     ,   122.9194    
   2722.780     ,   221.1862    
   2724.174     ,   24.54790    
   2725.568     ,   213.7030    
   2726.961     ,   312.3210    
   2728.354     ,   183.4913    
   2729.747     ,   328.6076    
   2731.139     ,   224.4262    
   2732.530     ,   280.4867    
   2733.921     ,   207.1135    
   2735.311     ,   252.1899    
   2736.701     ,   6.368225    
   2738.090     ,   255.5506    
   2739.479     ,   197.7688    
   2740.867     ,   162.1878    
   2742.255     ,   323.2798    
   2743.642     ,   170.4573    
   2745.029     ,   192.9694    
   2746.415     ,   294.5946    
   2747.800     ,   96.07643    
   2749.185     ,   47.29349    
   2750.570     ,   286.0450    
   2751.954     ,   411.5260    
   2753.338     ,   229.3632    
   2754.720     ,   279.2909    
   2756.103     ,   213.4314    
   2757.485     ,   243.6541    
   2758.866     ,   84.56982    
   2760.247     ,   299.6006    
   2761.628     ,   293.2065    
   2763.008     ,   315.4309    
   2764.387     ,   402.8036    
   2765.766     ,   134.9649    
   2767.144     ,   343.7205    
   2768.522     ,   245.2812    
   2769.899     ,   42.55658    
   2771.276     ,   218.3081    
   2772.652     ,   53.87750    
   2774.028     ,   169.7297    
   2775.403     ,   392.6859    
   2776.778     ,   352.6521    
   2778.152     ,   122.8648    
   2779.525     ,   216.2259    
   2780.899     ,   249.4057    
   2782.271     ,   49.37542    
   2783.643     ,   89.17743    
   2785.015     ,   272.4540    
   2786.386     ,   167.4732    
   2787.756     ,   450.7539    
   2789.126     ,   268.2516    
   2790.496     ,   115.7964    
   2791.865     ,   314.7238    
   2793.233     ,   347.7966    
   2794.601     ,   107.6491    
   2795.969     ,   25.02907    
   2797.336     ,   234.2907    
   2798.702     ,   271.1457    
   2800.068     ,   442.3264    
   2801.433     ,   53.76587    
   2802.798     ,   252.3301    
   2804.162     ,   189.8322    
   2805.526     ,   433.4529    
   2806.889     ,   78.08624    
   2808.252     ,   223.7113    
   2809.615     ,   61.25540    
   2810.976     ,   151.1492    
   2812.338     ,   341.7800    
   2813.698     ,   235.0286    
   2815.059     ,   255.5200    
   2816.418     ,   300.4385    
   2817.777     ,   270.9621    
   2819.136     ,   367.0808    
   2820.494     ,   4.926010    
   2821.852     ,   410.5625    
   2823.209     ,   250.0216    
   2824.566     ,   52.16052    
   2825.922     ,   285.5270    
   2827.277     ,   345.4011    
   2828.632     ,   142.6184    
   2829.987     ,   316.4694    
   2831.341     ,   314.0399    
   2832.695     ,   221.9582    
   2834.048     ,   166.2629    
   2835.400     ,   178.3837    
   2836.752     ,   85.29774    
   2838.104     ,   270.0590    
   2839.455     ,   217.0124    
   2840.805     ,   80.01131    
   2842.155     ,   90.15875    
   2843.504     ,   333.1135    
   2844.853     ,   294.1110    
   2846.202     ,   226.2545    
   2847.550     ,   141.4953    
   2848.897     ,   100.2517    
   2850.244     ,   173.8454    
   2851.590     ,   83.56360    
   2852.936     ,   119.3044    
   2854.281     ,   130.3044    
   2855.626     ,   391.7514    
   2856.971     ,   71.83389    
   2858.314     ,   168.6930    
   2859.658     ,   141.3114    
   2861.001     ,   51.15402    
   2862.343     ,   228.7399    
   2863.685     ,   328.2622    
   2865.026     ,   257.8100    
   2866.367     ,   246.0756    
   2867.707     ,   19.42932    
   2869.047     ,   280.6485    
   2870.386     ,   183.0258    
   2871.725     ,   251.0560    
   2873.063     ,   223.8985    
   2874.401     ,   24.88866    
   2875.738     ,   261.5431    
   2877.075     ,   122.8636    
   2878.411     ,   146.6777    
   2879.747     ,   312.2076    
   2881.082     ,   162.4234    
   2882.417     ,   151.3626    
   2883.751     ,   129.0752    
   2885.084     ,   170.4904    
   2886.417     ,   229.0927    
   2887.750     ,   98.38805    
   2889.082     ,   218.4203    
   2890.414     ,   304.5974    
   2891.745     ,   343.1828    
   2893.076     ,   197.2956    
   2894.406     ,   52.30294    
   2895.736     ,   318.1168    
   2897.065     ,   93.04507    
   2898.393     ,   186.8948    
   2899.721     ,   281.5184    
   2901.049     ,   346.7109    
   2902.376     ,   131.2909    
   2903.703     ,   113.1234    
   2905.029     ,   177.9191    
   2906.354     ,   63.07885    
   2907.679     ,   119.0811    
   2909.004     ,   358.7892    
   2910.328     ,   209.2278    
   2911.652     ,   159.2520    
   2912.975     ,   30.12425    
   2914.297     ,   129.4578    
   2915.619     ,   166.1361    
   2916.941     ,   392.0539    
   2918.262     ,   418.1992    
   2919.583     ,   180.0657    
   2920.903     ,   171.4002    
   2922.222     ,   399.3721    
   2923.541     ,   295.5352    
   2924.860     ,   278.3246    
   2926.178     ,   282.5404    
   2927.495     ,   262.5192    
   2928.812     ,   57.95506    
   2930.129     ,   52.57399    
   2931.445     ,   227.5566    
   2932.760     ,   198.6814    
   2934.076     ,   189.4877    
   2935.390     ,   295.3429    
   2936.704     ,   107.5236    
   2938.018     ,   251.3233    
   2939.331     ,   47.74068    
   2940.643     ,   341.6718    
   2941.955     ,   167.4168    
   2943.267     ,   137.3733    
   2944.578     ,   190.2098    
   2945.888     ,   239.6649    
   2947.198     ,   297.2514    
   2948.508     ,   184.8508    
   2949.817     ,   281.5081    
   2951.125     ,   304.1512    
   2952.434     ,   49.21481    
   2953.741     ,   257.0081    
   2955.048     ,  0.2286950    
   2956.355     ,   99.35367    
   2957.661     ,   128.2728    
   2958.966     ,   199.2120    
   2960.271     ,   42.71698    
   2961.576     ,   204.1814    
   2962.880     ,   286.9762    
   2964.184     ,   164.9557    
   2965.487     ,   465.6053    
   2966.789     ,   106.7499    
   2968.091     ,   250.1926    
   2969.393     ,   93.61021    
   2970.694     ,   283.3710    
   2971.995     ,   35.44020    
   2973.295     ,   247.4729    
   2974.594     ,   305.0444    
   2975.893     ,   3.329823    
   2977.192     ,   30.44989    
   2978.490     ,   124.9707    
   2979.788     ,   187.3381    
   2981.085     ,   62.45900    
   2982.381     ,   203.7534    
   2983.677     ,   175.7992    
   2984.973     ,   200.0989    
   2986.268     ,   137.7796    
   2987.563     ,   302.5479    
   2988.857     ,   208.2548    
   2990.151     ,   79.42690    
   2991.444     ,   16.69985    
   2992.736     ,   188.2279    
   2994.029     ,   43.95284    
   2995.320     ,   183.3949    
   2996.611     ,   26.21102    
   2997.902     ,   247.3327    
   2999.192     ,   334.7256    
   3000.482     ,   130.1149    
   3001.771     ,   75.34506    
   3003.060     ,   156.9871    
   3004.348     ,   209.0454    
   3005.636     ,   37.22950    
   3006.923     ,   160.1734    
   3008.210     ,   166.4217    
   3009.496     ,   235.3580    
   3010.782     ,   302.6692    
   3012.067     ,   47.85146    
   3013.352     ,   207.4573    
   3014.636     ,   206.0467    
   3015.920     ,   225.9592    
   3017.203     ,   282.1640    
   3018.486     ,   247.5244    
   3019.768     ,   2.311872    
   3021.050     ,   309.0988    
   3022.331     ,   250.3754    
   3023.612     ,   396.6497    
   3024.893     ,   252.1281    
   3026.172     ,   238.7141    
   3027.452     ,   83.99480    
   3028.731     ,   129.3943    
   3030.009     ,   143.7336    
   3031.287     ,   81.12905    
   3032.564     ,   5.615406    
   3033.841     ,   28.74249    
   3035.118     ,   78.97865    
   3036.394     ,   102.5229    
   3037.669     ,   96.23018    
   3038.944     ,   3.424154    
   3040.219     ,   150.1397    
   3041.492     ,   70.38278    
   3042.766     ,   28.20212    
   3044.039     ,   219.8166    
   3045.312     ,   281.8673    
   3046.583     ,   28.44761    
   3047.855     ,   104.2934    
   3049.126     ,   137.6972    
   3050.397     ,   136.2514    
   3051.667     ,   99.11295    
   3052.936     ,   246.5403    
   3054.206     ,   153.9653    
   3055.474     ,   76.06997    
   3056.742     ,   156.5781    
   3058.010     ,   136.7657    
   3059.277     ,   57.53586    
   3060.544     ,   312.5668    
   3061.810     ,   274.1540    
   3063.075     ,   59.14446    
   3064.341     ,   200.7666    
   3065.605     ,   243.4566    
   3066.870     ,   191.7139    
   3068.133     ,   95.69227    
   3069.397     ,   90.39481    
   3070.659     ,   130.2119    
   3071.922     ,   34.13948    
   3073.184     ,   174.9550    
   3074.445     ,   78.82446    
   3075.706     ,   230.5746    
   3076.966     ,   230.9456    
   3078.226     ,   133.6578    
   3079.485     ,   7.657146    
   3080.744     ,   35.76146    
   3082.003     ,   88.81113    
   3083.260     ,   46.96852    
   3084.518     ,   12.87426    
   3085.775     ,   134.9450    
   3087.031     ,   48.31396    
   3088.287     ,   144.8989    
   3089.543     ,   86.15491    
   3090.798     ,   136.3324    
   3092.052     ,   179.0789    
   3093.307     ,   84.19273    
   3094.560     ,   169.9408    
   3095.813     ,   45.88002    
   3097.066     ,   92.32979    
   3098.318     ,   220.2573    
   3099.570     ,   275.5562    
   3100.821     ,   37.35875    
   3102.072     ,   67.36372    
   3103.322     ,   197.9061    
   3104.571     ,   8.454372    
   3105.821     ,   49.98686    
   3107.069     ,   69.39100    
   3108.318     ,   125.6824    
   3109.565     ,   113.0821    
   3110.813     ,   169.7021    
   3112.060     ,   171.2820    
   3113.306     ,   38.29001    
   3114.552     ,   36.97512    
   3115.797     ,   489.0243    
   3117.042     ,   6.249611    
   3118.287     ,   11.32011    
   3119.531     ,   111.2754    
   3120.774     ,   98.46272    
   3122.017     ,   309.4661    
   3123.260     ,   131.0248    
   3124.501     ,   101.2833    
   3125.743     ,   115.1549    
   3126.984     ,   183.2863    
   3128.225     ,   258.3094    
   3129.465     ,   174.1359    
   3130.704     ,   126.7103    
   3131.944     ,   26.22511    
   3133.182     ,   167.7682    
   3134.420     ,   174.4735    
   3135.658     ,   43.23438    
   3136.896     ,   143.5261    
   3138.132     ,   375.6402    
   3139.368     ,   240.7472    
   3140.604     ,   273.5534    
   3141.840     ,   348.2935    
   3143.074     ,   362.3745    
   3144.309     ,   274.0004    
   3145.543     ,   240.1986    
   3146.776     ,   363.1251    
   3148.009     ,   311.3123    
   3149.241     ,   260.7270    
   3150.473     ,   554.2339    
   3151.705     ,   449.7607    
   3152.936     ,   380.5970    
   3154.167     ,   407.8128    
   3155.397     ,   468.7895    
   3156.626     ,   191.5467    
   3157.855     ,   238.7437    
   3159.084     ,   245.1284    
   3160.312     ,   300.5255    
   3161.540     ,   115.3624    
   3162.767     ,   86.77831    
   3163.994     ,   281.2440    
   3165.220     ,   550.3741    
   3166.446     ,   415.7992    
   3167.671     ,   324.3761    
   3168.896     ,   453.6792    
   3170.121     ,   404.4620    
   3171.344     ,   596.4940    
   3172.568     ,   405.4038    
   3173.791     ,   244.1831    
   3175.013     ,   149.9899    
   3176.235     ,   384.3506    
   3177.457     ,   285.7121    
   3178.678     ,   266.1970    
   3179.898     ,   319.0798    
   3181.119     ,   440.6979    
   3182.338     ,   589.0701    
   3183.557     ,   359.5764    
   3184.776     ,   497.1044    
   3185.994     ,   438.7043    
   3187.212     ,   494.3235    
   3188.429     ,   404.7914    
   3189.646     ,   203.6411    
   3190.863     ,   393.2769    
   3192.078     ,   472.2744    
   3193.294     ,   404.4205    
   3194.509     ,   414.9881    
   3195.723     ,   553.6262    
   3196.937     ,   481.3602    
   3198.151     ,   587.0063    
   3199.364     ,   504.2004    
   3200.576     ,   557.7488    
   3201.788     ,   505.0259    
   3203.000     ,   697.1915    
   3204.211     ,   429.0967    
   3205.422     ,   437.3024    
   3206.632     ,   445.3354    
   3207.842     ,   528.8205    
   3209.051     ,   571.6714    
   3210.260     ,   617.3773    
   3211.468     ,   503.1505    
   3212.676     ,   546.5110    
   3213.883     ,   484.5168    
   3215.090     ,   718.5479    
   3216.296     ,   608.5621    
   3217.502     ,   562.2860    
   3218.708     ,   408.8997    
   3219.913     ,   524.6533    
   3221.117     ,   339.6845    
   3222.322     ,   506.5672    
   3223.525     ,   454.7645    
   3224.728     ,   393.9493    
   3225.931     ,   509.7910    
   3227.133     ,   508.7254    
   3228.335     ,   588.6353    
   3229.536     ,   536.1754    
   3230.737     ,   597.8895    
   3231.938     ,   539.0217    
   3233.137     ,   681.5852    
   3234.337     ,   487.8351    
   3235.536     ,   559.9400    
   3236.734     ,   644.9750    
   3237.932     ,   668.3098    
   3239.130     ,   577.0379    
   3240.327     ,   447.1512    
   3241.523     ,   417.4136    
   3242.719     ,   382.8796    
   3243.915     ,   785.4763    
   3245.110     ,   467.2178    
   3246.305     ,   364.7677    
   3247.500     ,   440.0870    
   3248.693     ,   621.8533    
   3249.886     ,   619.7819    
   3251.079     ,   645.3081    
   3252.272     ,   383.1613    
   3253.464     ,   639.2951    
   3254.655     ,   551.2573    
   3255.846     ,   557.1164    
   3257.037     ,   520.4446    
   3258.227     ,   742.0967    
   3259.417     ,   483.2126    
   3260.606     ,   252.7446    
   3261.794     ,   532.3255    
   3262.983     ,   873.3066    
   3264.170     ,   567.1734    
   3265.358     ,   363.4302    
   3266.544     ,   366.3813    
   3267.731     ,   530.7262    
   3268.917     ,   275.7501    
   3270.102     ,   688.4152    
   3271.287     ,   640.8746    
   3272.472     ,   218.6183    
   3273.656     ,   396.8515    
   3274.839     ,   607.5490    
   3276.022     ,   575.3923    
   3277.205     ,   328.3517    
   3278.387     ,   201.1621    
   3279.569     ,   446.5833    
   3280.750     ,   310.3116    
   3281.931     ,   158.1406    
   3283.111     ,   239.8015    
   3284.291     ,   451.8130    
   3285.471     ,   331.7547    
   3286.650     ,   515.5974    
   3287.828     ,   363.3161    
   3289.006     ,   119.5229    
   3290.184     ,   485.4696    
   3291.361     ,   290.3972    
   3292.538     ,   377.8075    
   3293.714     ,   208.2288    
   3294.889     ,   229.1220    
   3296.065     ,   464.8994    
   3297.240     ,   408.4354    
   3298.414     ,   146.4415    
   3299.588     ,   303.2607    
   3300.761     ,   208.3806    
   3301.934     ,   175.4977    
   3303.107     ,   125.1818    
   3304.279     ,   447.5359    
   3305.450     ,   194.5533    
   3306.621     ,   143.9913    
   3307.792     ,   132.8680    
   3308.962     ,   448.7513    
   3310.132     ,   298.8249    
   3311.301     ,   404.0783    
   3312.470     ,   342.5363    
   3313.638     ,   291.7029    
   3314.806     ,   390.4391    
   3315.974     ,   380.3889    
   3317.141     ,   175.4429    
   3318.307     ,   261.6008    
   3319.473     ,   439.0790    
   3320.639     ,   387.0264    
   3321.804     ,   196.2373    
   3322.969     ,   510.7938    
   3324.133     ,   464.0204    
   3325.297     ,   216.1368    
   3326.460     ,   277.3960    
   3327.623     ,   47.30025    
   3328.785     ,   323.4669    
   3329.947     ,   193.8572    
   3331.109     ,   26.82361    
   3332.270     ,   20.29211    
   3333.430     ,   260.8340    
   3334.591     ,   491.9361    
   3335.750     ,   142.7181    
   3336.909     ,   71.29651    
   3338.068     ,   136.1625    
   3339.227     ,   200.6904    
   3340.384     ,   272.7252    
   3341.542     ,   105.0203    
   3342.699     ,   80.10556    
   3343.855     ,   309.9711    
   3345.011     ,   1.175903    
   3346.167     ,   26.31461    
   3347.322     ,   180.8433    
   3348.476     ,   182.6131    
   3349.631     ,   178.7193    
   3350.784     ,   218.2428    
   3351.938     ,   149.9389    
   3353.090     ,   126.0585    
   3354.243     ,   258.0159    
   3355.395     ,   119.2041    
   3356.546     ,   9.599915    
   3357.697     ,   101.7634    
   3358.848     ,   389.4229    
   3359.998     ,   69.86130    
   3361.147     ,   273.0862    
   3362.297     ,   63.74734    
   3363.445     ,   4.235733    
   3364.594     ,   32.01286    
   3365.741     ,   16.38150    
   3366.889     ,   171.1237    
   3368.036     ,   259.8523    
   3369.182     ,   99.60335    
   3370.328     ,   39.92079    
   3371.474     ,   253.6704    
   3372.619     ,   109.0552    
   3373.764     ,   144.9988    
   3374.908     ,   133.5130    
   3376.052     ,   118.5565    
   3377.195     ,   220.7902    
   3378.338     ,   307.8300    
   3379.480     ,   33.10486    
   3380.622     ,   325.9519    
   3381.763     ,   155.3492    
   3382.905     ,   286.7726    
   3384.045     ,   237.3612    
   3385.185     ,   179.5605    
   3386.325     ,   299.8822    
   3387.464     ,   40.90462    
   3388.603     ,   70.88406    
   3389.741     ,   81.60431    
   3390.879     ,   111.8252    
   3392.017     ,   97.21835    
   3393.154     ,   261.7566    
   3394.290     ,   276.6246    
   3395.426     ,   120.6132    
   3396.562     ,   377.6303    
   3397.697     ,   332.2822    
   3398.832     ,   203.2597    
   3399.966     ,   420.5332    
   3401.100     ,   253.9365    
   3402.233     ,   5.205994    
   3403.366     ,   274.2072    
   3404.499     ,   243.9663    
   3405.630     ,   122.1853    
   3406.762     ,   212.3555    
   3407.893     ,   184.9626    
   3409.024     ,   306.5903    
   3410.154     ,   139.2447    
   3411.284     ,   174.5623    
   3412.413     ,   300.8060    
   3413.542     ,   231.1023    
   3414.670     ,   22.98637    
   3415.798     ,   136.2666    
   3416.926     ,   253.1248    
   3418.053     ,   37.12463    
   3419.180     ,   110.1978    
   3420.306     ,   130.1210    
   3421.432     ,   109.2236    
   3422.557     ,   321.9165    
   3423.682     ,   85.35074    
   3424.806     ,   262.4494    
   3425.930     ,   201.9496    
   3427.054     ,   433.6531    
   3428.177     ,   279.1891    
   3429.299     ,   326.6633    
   3430.421     ,   130.6695    
   3431.543     ,   56.85887    
   3432.664     ,   307.4171    
   3433.785     ,   30.41728    
   3434.906     ,   176.9860    
   3436.026     ,   6.525024    
   3437.145     ,   257.6836    
   3438.264     ,   202.7353    
   3439.383     ,   410.7995    
   3440.501     ,   270.0203    
   3441.618     ,   281.9576    
   3442.736     ,   504.2181    
   3443.853     ,   285.1774    
   3444.969     ,   214.4130    
   3446.085     ,   316.9080    
   3447.200     ,   93.93521    
   3448.315     ,   406.6262    
   3449.430     ,   229.7057    
   3450.544     ,   149.1239    
   3451.658     ,   130.5470    
   3452.771     ,   226.6384    
   3453.884     ,   153.4903    
   3454.996     ,   214.8575    
   3456.108     ,   243.6682    
   3457.219     ,   78.47346    
   3458.331     ,   259.6903    
   3459.441     ,   137.8121    
   3460.551     ,   506.4788    
   3461.661     ,   275.8031    
   3462.770     ,   132.6025    
   3463.879     ,   173.2859    
   3464.987     ,   156.1037    
   3466.095     ,   281.2458    
   3467.203     ,   56.84871    
   3468.310     ,   206.1010    
   3469.417     ,   415.3086    
   3470.522     ,   389.7023    
   3471.628     ,   227.9640    
   3472.733     ,   67.37823    
   3473.838     ,   339.2667    
   3474.943     ,   322.9503    
   3476.047     ,   338.0296    
   3477.150     ,   316.0585    
   3478.253     ,   292.2719    
   3479.356     ,   461.3320    
   3480.458     ,   399.1478    
   3481.560     ,   132.6463    
   3482.661     ,   110.3523    
   3483.762     ,   405.1517    
   3484.862     ,   498.2918    
   3485.962     ,   176.5661    
   3487.062     ,   253.8690    
   3488.161     ,   1.054092    
   3489.260     ,   158.8808    
   3490.358     ,   295.9241    
   3491.455     ,   215.2902    
   3492.553     ,   104.8337    
   3493.650     ,   353.5266    
   3494.746     ,   242.7848    
   3495.842     ,   261.2432    
   3496.938     ,   399.6367    
   3498.033     ,   275.8433    
   3499.127     ,   413.4977    
   3500.222     ,   561.6452    
   3501.315     ,   117.7679    
   3502.409     ,   258.2736    
   3503.502     ,   118.3841    
   3504.594     ,   301.7178    
   3505.686     ,   93.07872    
   3506.778     ,   264.6021    
   3507.869     ,   120.4385    
   3508.960     ,   249.5650    
   3510.050     ,   299.9751    
   3511.140     ,   408.5647    
   3512.229     ,   314.9608    
   3513.318     ,   292.6343    
   3514.407     ,   318.6714    
   3515.495     ,   315.9122    
   3516.583     ,   358.4802    
   3517.670     ,   291.2601    
   3518.756     ,   410.5953    
   3519.843     ,   392.5208    
   3520.929     ,   347.3661    
   3522.014     ,   224.6130    
   3523.099     ,   439.7318    
   3524.184     ,   547.8210    
   3525.268     ,   33.24435    
   3526.352     ,   251.6100    
   3527.435     ,   174.1498    
   3528.518     ,   88.93195    
   3529.600     ,   221.4175    
   3530.682     ,   475.5604    
   3531.764     ,   436.5280    
   3532.845     ,   378.9700    
   3533.925     ,   240.8640    
   3535.006     ,   413.2104    
   3536.085     ,   413.0529    
   3537.165     ,   464.6894    
   3538.244     ,   378.2518    
   3539.322     ,   43.24048    
   3540.400     ,   413.7104    
   3541.478     ,   485.2941    
   3542.555     ,   469.0867    
   3543.632     ,   606.6967    
   3544.708     ,   625.9245    
   3545.784     ,   454.5362    
   3546.859     ,   488.4703    
   3547.934     ,   266.6825    
   3549.009     ,   409.6808    
   3550.083     ,   513.9783    
   3551.157     ,   715.0996    
   3552.230     ,   85.09991    
   3553.303     ,   19.12217    
   3554.375     ,   472.9799    
   3555.447     ,   512.9999    
   3556.519     ,   579.4258    
   3557.590     ,   697.4842    
   3558.660     ,   491.5178    
   3559.730     ,   522.5237    
   3560.800     ,   693.9869    
   3561.870     ,   531.4804    
   3562.939     ,   305.9953    
   3564.007     ,   536.1520    
   3565.075     ,   312.3896    
   3566.143     ,   553.2026    
   3567.210     ,   555.7719    
   3568.277     ,   537.6137    
   3569.343     ,   557.2982    
   3570.409     ,   294.6757    
   3571.474     ,   401.5434    
   3572.539     ,   598.3412    
   3573.604     ,   72.66036    
   3574.668     ,   680.1740    
   3575.732     ,   518.5616    
   3576.795     ,   566.0147    
   3577.858     ,   525.9634    
   3578.920     ,   57.49784    
   3579.982     ,   519.2490    
   3581.044     ,   409.0930    
   3582.105     ,   346.6059    
   3583.166     ,   532.6851    
   3584.226     ,   512.1072    
   3585.286     ,   685.0392    
   3586.345     ,   401.9125    
   3587.405     ,   239.4647    
   3588.463     ,   54.87488    
   3589.521     ,   622.8117    
   3590.579     ,   673.1814    
   3591.636     ,   565.3931    
   3592.693     ,   400.9308    
   3593.749     ,   604.3035    
   3594.805     ,   1027.550    
   3595.861     ,   475.5945    
   3596.916     ,   720.7192    
   3597.971     ,   458.5397    
   3599.025     ,   376.4297    
   3600.079     ,   246.3299    
   3601.132     ,   226.5901    
   3602.185     ,   523.1823    
   3603.238     ,   734.7002    
   3604.290     ,   367.1525    
   3605.341     ,   442.2849    
   3606.393     ,   190.7572    
   3607.443     ,   683.8033    
   3608.494     ,   53.03748    
   3609.544     ,   315.1766    
   3610.593     ,   373.0176    
   3611.642     ,   594.9691    
   3612.691     ,   582.1477    
   3613.739     ,   565.7861    
   3614.787     ,   33.75924    
   3615.834     ,   509.0547    
   3616.881     ,   527.6113    
   3617.928     ,   570.0296    
   3618.974     ,   536.6021    
   3620.020     ,   406.7577    
   3621.065     ,   382.9877    
   3622.110     ,   675.7194    
   3623.154     ,   484.0343    
   3624.198     ,   649.4475    
   3625.242     ,   382.6948    
   3626.285     ,   283.4739    
   3627.328     ,   281.1059    
   3628.370     ,   205.3532    
   3629.412     ,   509.6988    
   3630.453     ,   413.9020    
   3631.494     ,   653.6992    
   3632.535     ,   366.1609    
   3633.575     ,   465.4737    
   3634.615     ,   597.6349    
   3635.654     ,   329.4070    
   3636.693     ,   469.1469    
   3637.731     ,   355.4383    
   3638.769     ,   119.0079    
   3639.807     ,   329.6776    
   3640.844     ,   504.8890    
   3641.880     ,   50.74113    
   3642.917     ,   287.8107    
   3643.953     ,   146.4957    
   3644.988     ,   475.6664    
   3646.023     ,   159.7662    
   3647.058     ,   500.8597    
   3648.092     ,   438.7575    
   3649.125     ,   276.7726    
   3650.159     ,   471.9972    
   3651.192     ,   321.6365    
   3652.224     ,   455.8431    
   3653.256     ,   134.8854    
   3654.288     ,   118.6890    
   3655.319     ,   409.5769    
   3656.350     ,   613.1313    
   3657.380     ,   99.63105    
   3658.410     ,   185.4810    
   3659.440     ,   408.5860    
   3660.469     ,   84.93358    
   3661.498     ,   423.9356    
   3662.526     ,   312.5960    
   3663.553     ,   527.6984    
   3664.581     ,   494.5100    
   3665.608     ,   490.5692    
   3666.635     ,   362.6197    
   3667.661     ,   200.3368    
   3668.686     ,   174.3542    
   3669.711     ,   312.5062    
   3670.736     ,   465.3017    
   3671.761     ,   546.4094    
   3672.785     ,   198.7542    
   3673.808     ,   462.0216    
   3674.832     ,   151.2246    
   3675.854     ,   403.9914    
   3676.877     ,   322.2352    
   3677.898     ,   398.0199    
   3678.920     ,   275.4020    
   3679.941     ,   262.3365    
   3680.962     ,   136.0534    
   3681.982     ,   48.14981    
   3683.002     ,   234.0914    
   3684.021     ,   528.0468    
   3685.040     ,   127.5729    
   3686.059     ,   304.7522    
   3687.077     ,   25.15721    
   3688.094     ,   64.61089    
   3689.112     ,   486.9385    
   3690.128     ,   437.6198    
   3691.145     ,   5.384445    
   3692.161     ,   541.0010    
   3693.177     ,   94.39986    
   3694.192     ,   395.0638    
   3695.206     ,   189.1505    
   3696.221     ,   3.596603    
   3697.235     ,   198.2677    
   3698.248     ,   425.0810    
   3699.261     ,   233.1361    
   3700.274     ,   246.9133    
   3701.286     ,   270.1748    
   3702.298     ,   159.6718    
   3703.309     ,   14.47305    
   3704.320     ,   380.6695    
   3705.331     ,   514.1871    
   3706.341     ,   391.7423    
   3707.351     ,   66.22504    
   3708.360     ,   450.3778    
   3709.369     ,   239.6856    
   3710.377     ,   652.5718    
   3711.385     ,   182.9641    
   3712.393     ,   132.8548    
   3713.400     ,   224.6781    
   3714.407     ,   340.0417    
   3715.413     ,   414.6164    
   3716.419     ,   353.8139    
   3717.425     ,   120.5634    
   3718.430     ,   150.9872    
   3719.434     ,   678.2900    
   3720.439     ,   473.2863    
   3721.443     ,   387.8551    
   3722.446     ,   222.5603    
   3723.449     ,   104.0880    
   3724.452     ,   47.03925    
   3725.454     ,   256.0458    
   3726.456     ,   248.3759    
   3727.457     ,   321.9717    
   3728.458     ,   734.6021    
   3729.458     ,   721.6061    
   3730.458     ,   473.8713    
   3731.458     ,   633.4844    
   3732.458     ,   208.5518    
   3733.456     ,   231.7160    
   3734.455     ,   603.7292    
   3735.453     ,   237.7390    
   3736.450     ,   573.1152    
   3737.448     ,   413.0765    
   3738.444     ,   337.9655    
   3739.441     ,   261.2480    
   3740.437     ,   388.9219    
   3741.432     ,   346.1861    
   3742.427     ,   530.7692    
   3743.422     ,   246.4109    
   3744.416     ,   277.9856    
   3745.410     ,   694.4215    
   3746.404     ,   554.5679    
   3747.396     ,   610.7618    
   3748.389     ,   492.9135    
   3749.381     ,   676.6900    
   3750.373     ,   168.6843    
   3751.365     ,   824.6636    
   3752.355     ,   700.7982    
   3753.346     ,   459.4253    
   3754.336     ,   180.0348    
   3755.326     ,   792.9238    
   3756.315     ,   368.8391    
   3757.304     ,   683.7728    
   3758.292     ,   749.6500    
   3759.281     ,   564.1155    
   3760.268     ,   517.5123    
   3761.255     ,   603.3779    
   3762.242     ,   1001.580    
   3763.229     ,   719.4672    
   3764.215     ,   351.9316    
   3765.200     ,   304.6976    
   3766.186     ,   499.6997    
   3767.170     ,   846.9982    
   3768.155     ,   559.3276    
   3769.138     ,   720.1942    
   3770.122     ,   824.6829    
   3771.105     ,   584.9446    
   3772.088     ,   135.2975    
   3773.070     ,   477.0160    
   3774.052     ,   1115.084    
   3775.033     ,   204.9904    
   3776.014     ,   656.5652    
   3776.995     ,   533.6759    
   3777.975     ,   946.9888    
   3778.955     ,   837.8912    
   3779.934     ,   583.2635    
   3780.913     ,   835.3081    
   3781.892     ,   415.4993    
   3782.870     ,   904.4034    
   3783.848     ,   808.4786    
   3784.825     ,   947.6486    
   3785.802     ,   627.1823    
   3786.779     ,   512.6828    
   3787.755     ,   569.9362    
   3788.730     ,   564.4490    
   3789.706     ,   1061.589    
   3790.681     ,   559.6506    
   3791.655     ,   491.4764    
   3792.629     ,   1062.565    
   3793.603     ,   757.0524    
   3794.576     ,   487.4309    
   3795.549     ,   870.4546    
   3796.521     ,   428.6908    
   3797.493     ,   1090.092    
   3798.465     ,   897.1012    
   3799.436     ,   1091.530    
   3800.407     ,   215.1565    
   3801.377     ,   917.9638    
   3802.347     ,   558.7237    
   3803.317     ,   1088.469    
   3804.286     ,   472.0988    
   3805.254     ,   149.8306    
   3806.223     ,   826.6719    
   3807.191     ,   909.1633    
   3808.158     ,   758.5445    
   3809.125     ,   871.8642    
   3810.092     ,   1199.888    
   3811.058     ,   797.7670    
   3812.024     ,   556.1391    
   3812.990     ,   734.5476    
   3813.954     ,   483.6338    
   3814.919     ,   670.7935    
   3815.883     ,   821.1090    
   3816.847     ,   940.5145    
   3817.811     ,   934.6874    
   3818.773     ,   672.9531    
   3819.736     ,   784.8694    
   3820.698     ,   832.2493    
   3821.660     ,   277.7032    
   3822.621     ,   668.0294    
   3823.582     ,   803.0213    
   3824.543     ,   948.2557    
   3825.503     ,   674.5749    
   3826.463     ,   623.6285    
   3827.422     ,   769.6277    
   3828.381     ,   441.5968    
   3829.340     ,   680.8546    
   3830.298     ,   577.7460    
   3831.255     ,   306.9355    
   3832.213     ,   1091.860    
   3833.169     ,   870.7268    
   3834.126     ,   681.5828    
   3835.082     ,   808.2957    
   3836.038     ,   677.9420    
   3836.993     ,   652.4664    
   3837.948     ,   865.4668    
   3838.902     ,   753.5207    
   3839.856     ,   1005.190    
   3840.810     ,   583.7219    
   3841.763     ,   914.4418    
   3842.716     ,   932.4975    
   3843.668     ,   847.7247    
   3844.620     ,   964.0171    
   3845.572     ,   920.5959    
   3846.523     ,   888.8287    
   3847.474     ,   861.5194    
   3848.424     ,   539.7162    
   3849.375     ,   826.5807    
   3850.324     ,   1155.840    
   3851.273     ,   965.5077    
   3852.222     ,   825.4656    
   3853.170     ,   572.5465    
   3854.118     ,   926.7217    
   3855.066     ,   932.8710    
   3856.013     ,   597.9087    
   3856.960     ,   1072.343    
   3857.906     ,   442.7242    
   3858.852     ,   733.6764    
   3859.798     ,   814.1225    
   3860.743     ,   579.0121    
   3861.688     ,   834.5762    
   3862.632     ,   763.1583    
   3863.576     ,   533.2787    
   3864.519     ,   851.8836    
   3865.462     ,   1032.005    
   3866.405     ,   1058.859    
   3867.347     ,   606.6445    
   3868.289     ,   744.1564    
   3869.231     ,   570.0567    
   3870.172     ,   895.0659    
   3871.113     ,   615.6294    
   3872.053     ,   888.8716    
   3872.993     ,   841.7244    
   3873.932     ,   775.9590    
   3874.871     ,   154.9364    
   3875.810     ,   1198.352    
   3876.748     ,   322.4009    
   3877.686     ,   512.5237    
   3878.624     ,   510.7688    
   3879.561     ,   258.8203    
   3880.497     ,   431.5344    
   3881.433     ,   891.0261    
   3882.369     ,   273.7551    
   3883.305     ,   1023.523    
   3884.240     ,   389.6051    
   3885.175     ,   713.8372    
   3886.109     ,   587.4893    
   3887.042     ,   737.0663    
   3887.976     ,   459.7006    
   3888.909     ,   525.5687    
   3889.842     ,   214.7424    
   3890.774     ,   359.5815    
   3891.706     ,   720.4012    
   3892.637     ,   651.7247    
   3893.568     ,   884.1994    
   3894.499     ,   1083.192    
   3895.429     ,   1050.886    
   3896.359     ,   589.1364    
   3897.289     ,   551.1881    
   3898.218     ,   428.6798    
   3899.146     ,   752.2814    
   3900.074     ,   806.5972    
   3901.002     ,   175.2240    
   3901.930     ,   994.0967    
   3902.857     ,   833.2894    
   3903.783     ,   741.7415    
   3904.709     ,   773.2596    
   3905.635     ,   173.8736    
   3906.561     ,   460.3030    
   3907.486     ,   511.7261    
   3908.411     ,   623.5058    
   3909.335     ,   861.4915    
   3910.259     ,   334.5990    
   3911.182     ,   507.4041    
   3912.105     ,   204.0443    
   3913.028     ,   298.8022    
   3913.950     ,   406.5195    
   3914.872     ,   702.9971    
   3915.793     ,   597.4733    
   3916.714     ,   425.0322    
   3917.635     ,   925.6972    
   3918.555     ,   545.9095    
   3919.475     ,   476.6875    
   3920.395     ,   419.0287    
   3921.313     ,   678.5322    
   3922.232     ,   786.5422    
   3923.150     ,   615.1026    
   3924.068     ,   793.9912    
   3924.986     ,   420.1221    
   3925.903     ,   1123.346    
   3926.820     ,   741.8718    
   3927.736     ,   684.4346    
   3928.652     ,   437.6704    
   3929.567     ,   747.1677    
   3930.482     ,   914.0790    
   3931.397     ,   318.2145    
   3932.311     ,   725.7151    
   3933.225     ,   565.0452    
   3934.139     ,   586.0093    
   3935.052     ,   347.2995    
   3935.964     ,   949.9044    
   3936.877     ,   836.0572    
   3937.789     ,   855.1188    
   3938.700     ,   842.6532    
   3939.611     ,   130.0103    
   3940.522     ,   444.5717    
   3941.432     ,   590.8991    
   3942.342     ,   833.7625    
   3943.252     ,   464.3105    
   3944.161     ,   707.8736    
   3945.069     ,   902.9120    
   3945.978     ,   688.4392    
   3946.886     ,   33.84247    
   3947.793     ,   545.9766    
   3948.700     ,   574.7416    
   3949.607     ,   468.1939    
   3950.513     ,   472.9780    
   3951.419     ,   1022.897    
   3952.325     ,   1043.141    
   3953.230     ,   28.48651    
   3954.135     ,   103.8716    
   3955.039     ,   37.84131    
   3955.943     ,   1057.371    
   3956.847     ,   652.2545    
   3957.750     ,   38.47043    
   3958.653     ,   824.3422    
   3959.555     ,   1041.214    
   3960.457     ,   849.2563    
   3961.359     ,   143.4118    
   3962.260     ,   1025.623    
   3963.161     ,   185.8466    
   3964.061     ,   575.9309    
   3964.961     ,   763.1949    
   3965.861     ,   630.5550    
   3966.760     ,   1024.933    
   3967.659     ,   563.7798    
   3968.558     ,   501.6519    
   3969.456     ,   517.5719    
   3970.353     ,   651.3191    
   3971.250     ,   1139.616    
   3972.147     ,   888.5797    
   3973.044     ,   1033.482    
   3973.940     ,   255.8849    
   3974.836     ,   1242.118    
   3975.731     ,   41.75902    
   3976.626     ,   694.0439    
   3977.521     ,   559.4910    
   3978.415     ,   735.7361    
   3979.308     ,   618.6861    
   3980.202     ,   1087.668    
   3981.095     ,   632.6008    
   3981.987     ,   912.4240    
   3982.879     ,   858.4203    
   3983.771     ,   724.8475    
   3984.663     ,   306.2345    
   3985.553     ,   475.6139    
   3986.444     ,   622.9503    
   3987.334     ,   879.3610    
   3988.224     ,   20.36000    
   3989.114     ,   1207.445    
   3990.002     ,   1123.679    
   3990.891     ,   779.2508    
   3991.779     ,   1083.166    
   3992.667     ,   1177.084    
   3993.555     ,   959.4589    
   3994.442     ,   682.7784    
   3995.328     ,   849.7806    
   3996.215     ,   1005.412    
   3997.101     ,   1185.217    
   3997.986     ,   400.5794    
   3998.871     ,   1045.094    
   3999.756     ,   369.3761    
   4000.640     ,   972.0140    
   4001.524     ,   407.8844    
   4002.408     ,   816.9529    
   4003.291     ,   967.8919    
   4004.174     ,   884.8994    
   4005.056     ,   719.1331    
   4005.938     ,   327.8051    
   4006.820     ,   780.1172    
   4007.701     ,   992.4040    
   4008.582     ,   1315.901    
   4009.462     ,   182.1687    
   4010.342     ,   1034.494    
   4011.222     ,   590.8774    
   4012.101     ,   324.5353    
   4012.980     ,   286.7629    
   4013.858     ,   674.3097    
   4014.736     ,   94.85422    
   4015.614     ,   786.4918    
   4016.491     ,   1195.652    
   4017.368     ,   1.226650    
   4018.245     ,   480.1512    
   4019.121     ,   1177.071    
   4019.997     ,   1194.476    
   4020.872     ,   497.1872    
   4021.747     ,   81.18522    
   4022.622     ,   1074.692    
   4023.496     ,   1168.239    
   4024.370     ,   1034.391    
   4025.243     ,   561.4797    
   4026.116     ,   1157.809    
   4026.989     ,   1077.599    
   4027.861     ,   1009.980    
   4028.733     ,   392.8909    
   4029.604     ,   1188.891    
   4030.475     ,   34.76783    
   4031.346     ,   1059.974    
   4032.216     ,   1415.737    
   4033.086     ,   1035.020    
   4033.956     ,   1071.967    
   4034.825     ,   491.3390    
   4035.694     ,   1244.813    
   4036.562     ,   1204.063    
   4037.430     ,   989.3015    
   4038.298     ,   1083.841    
   4039.165     ,   1161.216    
   4040.032     ,   1184.011    
   4040.898     ,   1150.769    
   4041.764     ,   1034.309    
   4042.630     ,   467.7367    
   4043.495     ,   4.242493    
   4044.360     ,  0.0000000E+00
