   129.3597     ,  0.0000000E+00
   131.7169     ,   204.4656    
   134.0731     ,   423.8105    
   136.4285     ,   233.0570    
   138.7830     ,   258.1810    
   141.1366     ,   13.09952    
   143.4893     ,   9.309311    
   145.8411     ,   277.6723    
   148.1921     ,   278.9621    
   150.5422     ,   314.2792    
   152.8914     ,   323.1341    
   155.2397     ,   415.8487    
   157.5871     ,   505.6429    
   159.9336     ,   636.9819    
   162.2793     ,   791.1386    
   164.6241     ,   715.0869    
   166.9679     ,   885.7793    
   169.3110     ,   1296.368    
   171.6531     ,   1786.360    
   173.9943     ,   2512.295    
   176.3347     ,   3161.686    
   178.6742     ,   3500.318    
   181.0128     ,   3991.874    
   183.3506     ,   3647.481    
   185.6874     ,   3064.701    
   188.0234     ,   2149.624    
   190.3585     ,   1473.495    
   192.6927     ,   953.8154    
   195.0261     ,   639.2977    
   197.3586     ,   265.6981    
   199.6902     ,   341.1207    
   202.0209     ,   207.0508    
   204.3508     ,   407.8377    
   206.6797     ,   92.37936    
   209.0078     ,   67.50607    
   211.3351     ,   18.21832    
   213.6614     ,   61.43301    
   215.9869     ,   5.033325    
   218.3115     ,   133.6077    
   220.6352     ,   124.0768    
   222.9581     ,   30.72469    
   225.2801     ,   95.32117    
   227.6012     ,   265.5194    
   229.9215     ,   1.319580    
   232.2408     ,   204.6615    
   234.5594     ,   94.18976    
   236.8770     ,   131.0861    
   239.1938     ,   292.5735    
   241.5097     ,   207.7910    
   243.8247     ,   360.8425    
   246.1389     ,   132.7518    
   248.4522     ,   407.1494    
   250.7646     ,   376.9810    
   253.0762     ,   569.1802    
   255.3869     ,   535.5046    
   257.6967     ,   499.4699    
   260.0056     ,   633.3608    
   262.3138     ,   962.8525    
   264.6210     ,   1553.839    
   266.9274     ,   1864.154    
   269.2328     ,   2392.460    
   271.5375     ,   2998.847    
   273.8413     ,   3960.377    
   276.1442     ,   5445.738    
   278.4462     ,   6894.558    
   280.7474     ,   8431.083    
   283.0478     ,   9999.247    
   285.3472     ,   11062.12    
   287.6458     ,   11065.07    
   289.9435     ,   10323.66    
   292.2404     ,   9011.946    
   294.5364     ,   7106.506    
   296.8316     ,   5552.995    
   299.1259     ,   4278.194    
   301.4193     ,   3209.887    
   303.7119     ,   2458.472    
   306.0036     ,   1868.472    
   308.2945     ,   1357.233    
   310.5845     ,   1293.019    
   312.8737     ,   1014.348    
   315.1620     ,   1049.884    
   317.4494     ,   864.8838    
   319.7360     ,   701.2166    
   322.0217     ,   469.0754    
   324.3065     ,   519.6069    
   326.5905     ,   565.1766    
   328.8737     ,   657.9636    
   331.1560     ,   511.8701    
   333.4374     ,   344.8784    
   335.7180     ,   409.8217    
   337.9978     ,   240.9023    
   340.2767     ,   254.7440    
   342.5547     ,   142.0680    
   344.8319     ,   163.8465    
   347.1082     ,   134.0179    
   349.3837     ,   248.5874    
   351.6583     ,   29.68530    
   353.9321     ,   78.39786    
   356.2050     ,   107.7503    
   358.4771     ,   245.8042    
   360.7483     ,   109.1873    
   363.0187     ,   86.23577    
   365.2882     ,   164.1505    
   367.5569     ,   117.2227    
   369.8247     ,   77.99150    
   372.0917     ,   44.79291    
   374.3578     ,   137.5793    
   376.6231     ,   184.0727    
   378.8875     ,   125.8276    
   381.1511     ,  0.9991000    
   383.4138     ,   182.3912    
   385.6758     ,   13.04375    
   387.9368     ,   34.56890    
   390.1970     ,   109.8499    
   392.4564     ,   248.2498    
   394.7149     ,   84.07340    
   396.9725     ,   124.0658    
   399.2294     ,   131.9787    
   401.4854     ,   136.9191    
   403.7405     ,   116.8180    
   405.9948     ,   215.5910    
   408.2483     ,   60.22905    
   410.5009     ,   81.74153    
   412.7526     ,   21.49730    
   415.0036     ,   166.8306    
   417.2537     ,   169.6874    
   419.5029     ,   173.0844    
   421.7513     ,   121.9637    
   423.9989     ,   223.6255    
   426.2456     ,   121.5740    
   428.4915     ,   146.9338    
   430.7365     ,   219.9631    
   432.9807     ,   145.5838    
   435.2241     ,   305.7262    
   437.4666     ,   173.9179    
   439.7083     ,   57.89184    
   441.9492     ,   132.9154    
   444.1892     ,   38.69540    
   446.4284     ,   49.67775    
   448.6668     ,   85.34055    
   450.9043     ,   148.7055    
   453.1410     ,   24.48239    
   455.3768     ,   208.3875    
   457.6118     ,   129.6978    
   459.8460     ,   43.35337    
   462.0793     ,   34.40236    
   464.3119     ,   39.25624    
   466.5435     ,   54.00735    
   468.7744     ,   29.97036    
   471.0044     ,   19.30676    
   473.2336     ,   71.41748    
   475.4619     ,   237.2138    
   477.6894     ,   144.5949    
   479.9161     ,   274.4121    
   482.1419     ,   247.7185    
   484.3669     ,   87.05460    
   486.5912     ,   66.37077    
   488.8145     ,   59.18143    
   491.0370     ,   117.2922    
   493.2587     ,   93.87296    
   495.4796     ,   126.3787    
   497.6996     ,   154.2154    
   499.9189     ,   283.1719    
   502.1372     ,   237.6688    
   504.3548     ,   299.4380    
   506.5715     ,   222.3716    
   508.7874     ,   279.6575    
   511.0025     ,   147.2379    
   513.2168     ,   380.2520    
   515.4302     ,   243.0358    
   517.6428     ,   388.9258    
   519.8546     ,   209.5794    
   522.0656     ,   181.6109    
   524.2757     ,   203.0618    
   526.4850     ,   72.99426    
   528.6935     ,   56.72824    
   530.9011     ,   166.5134    
   533.1080     ,   2.924471    
   535.3140     ,   35.00291    
   537.5192     ,   137.5437    
   539.7235     ,   153.1077    
   541.9271     ,   220.6938    
   544.1298     ,   140.4770    
   546.3317     ,   116.1773    
   548.5328     ,   211.9765    
   550.7330     ,   135.8724    
   552.9325     ,   239.8102    
   555.1311     ,   109.0639    
   557.3289     ,   244.1371    
   559.5259     ,   317.8649    
   561.7220     ,   62.27467    
   563.9174     ,   150.8501    
   566.1119     ,   30.73233    
   568.3057     ,   215.0728    
   570.4985     ,   141.7670    
   572.6906     ,   206.0173    
   574.8819     ,   45.79877    
   577.0723     ,   129.2088    
   579.2620     ,   183.3845    
   581.4508     ,   69.87897    
   583.6388     ,   234.5588    
   585.8260     ,   210.4090    
   588.0123     ,   4.049580    
   590.1979     ,   284.6682    
   592.3826     ,   90.85420    
   594.5665     ,   108.8723    
   596.7497     ,   294.2675    
   598.9319     ,   236.7423    
   601.1135     ,   189.0937    
   603.2941     ,   247.6077    
   605.4740     ,   75.41513    
   607.6531     ,   144.4781    
   609.8313     ,   226.7091    
   612.0087     ,   38.66148    
   614.1854     ,   71.16170    
   616.3611     ,   13.69933    
   618.5362     ,   263.5314    
   620.7104     ,   103.1263    
   622.8837     ,   93.19083    
   625.0563     ,   273.2083    
   627.2281     ,   12.81559    
   629.3990     ,   4.838261    
   631.5692     ,   49.80296    
   633.7385     ,   81.05449    
   635.9071     ,   79.71989    
   638.0748     ,   196.6040    
   640.2418     ,   342.4763    
   642.4078     ,   177.5826    
   644.5732     ,   193.0856    
   646.7377     ,   155.8087    
   648.9014     ,   34.50492    
   651.0643     ,   146.5622    
   653.2264     ,   287.1483    
   655.3876     ,   110.5974    
   657.5481     ,   90.65417    
   659.7078     ,   187.9698    
   661.8667     ,   129.8384    
   664.0247     ,   171.6456    
   666.1820     ,   375.3587    
   668.3385     ,   220.5749    
   670.4941     ,   129.0840    
   672.6490     ,   60.02753    
   674.8031     ,   120.6995    
   676.9564     ,   183.2226    
   679.1088     ,   81.31109    
   681.2604     ,   167.4425    
   683.4113     ,   108.3958    
   685.5614     ,   14.25081    
   687.7106     ,   6.101933    
   689.8591     ,   115.5003    
   692.0068     ,   24.51467    
   694.1536     ,   36.07916    
   696.2997     ,   344.3523    
   698.4450     ,   383.3750    
   700.5895     ,   373.5207    
   702.7332     ,   495.7154    
   704.8760     ,   685.6409    
   707.0181     ,   1021.543    
   709.1594     ,   1455.223    
   711.2999     ,   2145.583    
   713.4396     ,   2732.641    
   715.5785     ,   3106.926    
   717.7166     ,   3250.585    
   719.8539     ,   2942.106    
   721.9904     ,   2465.021    
   724.1262     ,   1536.948    
   726.2611     ,   1065.720    
   728.3952     ,   746.1798    
   730.5286     ,   514.7836    
   732.6611     ,   306.0150    
   734.7929     ,   502.1436    
   736.9239     ,   361.8082    
   739.0540     ,   289.2427    
   741.1834     ,   307.1361    
   743.3120     ,   171.5794    
   745.4398     ,   128.9537    
   747.5668     ,   287.8281    
   749.6931     ,   203.7633    
   751.8185     ,   156.7655    
   753.9432     ,   115.7881    
   756.0670     ,   277.1437    
   758.1901     ,   252.6702    
   760.3124     ,   122.4289    
   762.4339     ,   514.8967    
   764.5546     ,   60.64566    
   766.6745     ,   74.54111    
   768.7936     ,   151.5317    
   770.9120     ,   298.0827    
   773.0295     ,   113.6886    
   775.1463     ,   341.1392    
   777.2623     ,   13.00013    
   779.3775     ,   136.3539    
   781.4919     ,   81.25563    
   783.6055     ,   10.51881    
   785.7184     ,   119.9503    
   787.8304     ,   86.39802    
   789.9418     ,   127.3659    
   792.0522     ,   5.314354    
   794.1620     ,   182.5655    
   796.2709     ,   73.48565    
   798.3790     ,   40.75109    
   800.4864     ,   133.0704    
   802.5930     ,   40.63258    
   804.6988     ,   38.38707    
   806.8038     ,   55.31092    
   808.9081     ,   12.65880    
   811.0115     ,   123.9313    
   813.1142     ,   75.21156    
   815.2161     ,   244.6613    
   817.3172     ,   51.73135    
   819.4175     ,   249.5124    
   821.5172     ,   202.4962    
   823.6159     ,   219.0505    
   825.7139     ,   128.1025    
   827.8112     ,   148.6299    
   829.9076     ,   163.3808    
   832.0032     ,   237.6409    
   834.0981     ,   22.58650    
   836.1923     ,   113.0903    
   838.2856     ,   172.5292    
   840.3782     ,   210.4057    
   842.4700     ,   91.72612    
   844.5610     ,   363.5190    
   846.6512     ,   394.6339    
   848.7407     ,   109.7707    
   850.8294     ,   47.05916    
   852.9173     ,   27.71220    
   855.0045     ,   57.62917    
   857.0908     ,   150.1880    
   859.1764     ,   171.9790    
   861.2612     ,   95.90866    
   863.3453     ,   234.3952    
   865.4285     ,   87.92776    
   867.5110     ,   184.1339    
   869.5928     ,   30.42063    
   871.6737     ,   115.6051    
   873.7539     ,   229.2758    
   875.8333     ,   84.16290    
   877.9120     ,   204.4189    
   879.9899     ,   192.1669    
   882.0670     ,   182.5667    
   884.1433     ,   89.56795    
   886.2189     ,   2.416992    
   888.2937     ,   187.2827    
   890.3677     ,   185.4239    
   892.4410     ,   231.2104    
   894.5135     ,   142.5130    
   896.5852     ,   263.1672    
   898.6561     ,   167.5018    
   900.7263     ,   130.7654    
   902.7958     ,   87.92971    
   904.8644     ,   192.6706    
   906.9323     ,   236.6864    
   908.9995     ,   140.8039    
   911.0658     ,   167.5871    
   913.1314     ,   260.2024    
   915.1962     ,   51.79157    
   917.2603     ,   288.7462    
   919.3236     ,   90.25092    
   921.3861     ,   105.1965    
   923.4479     ,   141.9763    
   925.5089     ,   14.67126    
   927.5692     ,   120.3161    
   929.6286     ,   178.4042    
   931.6874     ,   50.64211    
   933.7453     ,   65.05417    
   935.8025     ,   298.7039    
   937.8589     ,   61.81676    
   939.9146     ,   161.5818    
   941.9695     ,   193.6996    
   944.0237     ,   187.8846    
   946.0771     ,  0.8178790    
   948.1297     ,   201.3881    
   950.1816     ,   110.3354    
   952.2327     ,   102.2943    
   954.2830     ,   197.1334    
   956.3326     ,   72.69225    
   958.3815     ,   78.02029    
   960.4295     ,   266.8894    
   962.4769     ,   98.67239    
   964.5234     ,   29.49651    
   966.5692     ,   147.0697    
   968.6143     ,   30.31864    
   970.6586     ,   59.22386    
   972.7021     ,   250.2243    
   974.7449     ,   152.8535    
   976.7869     ,   138.2426    
   978.8281     ,   57.61847    
   980.8687     ,   112.5197    
   982.9084     ,   77.46451    
   984.9474     ,   27.94706    
   986.9857     ,   231.3078    
   989.0231     ,   133.3293    
   991.0599     ,   272.2521    
   993.0958     ,   89.63683    
   995.1310     ,   130.4211    
   997.1655     ,   267.4778    
   999.1993     ,   186.7723    
   1001.232     ,   282.6494    
   1003.264     ,   135.9549    
   1005.296     ,   302.0630    
   1007.327     ,   292.8177    
   1009.357     ,   226.0093    
   1011.386     ,   422.4167    
   1013.414     ,   323.6884    
   1015.442     ,   494.0523    
   1017.469     ,   438.6788    
   1019.495     ,   313.4604    
   1021.521     ,   405.2852    
   1023.545     ,   348.6481    
   1025.569     ,   482.3511    
   1027.593     ,   401.8562    
   1029.615     ,   584.9211    
   1031.637     ,   401.5844    
   1033.658     ,   675.1619    
   1035.678     ,   577.3981    
   1037.697     ,   524.3431    
   1039.716     ,   526.2531    
   1041.734     ,   726.8251    
   1043.751     ,   709.0651    
   1045.768     ,   805.8538    
   1047.784     ,   885.5381    
   1049.799     ,   820.9041    
   1051.813     ,   965.6117    
   1053.826     ,   1049.336    
   1055.839     ,   1090.614    
   1057.851     ,   1474.548    
   1059.862     ,   1654.733    
   1061.873     ,   1791.454    
   1063.883     ,   2045.359    
   1065.892     ,   2494.785    
   1067.900     ,   3074.358    
   1069.908     ,   4192.372    
   1071.915     ,   6642.323    
   1073.921     ,   10480.34    
   1075.926     ,   16069.95    
   1077.931     ,   22923.46    
   1079.934     ,   28943.98    
   1081.938     ,   32584.66    
   1083.940     ,   32202.92    
   1085.942     ,   28559.03    
   1087.943     ,   22245.17    
   1089.943     ,   15722.02    
   1091.942     ,   9839.922    
   1093.941     ,   6373.094    
   1095.939     ,   3985.629    
   1097.936     ,   2764.138    
   1099.932     ,   1857.042    
   1101.928     ,   1503.659    
   1103.923     ,   980.6677    
   1105.917     ,   865.1259    
   1107.911     ,   691.9055    
   1109.904     ,   869.6249    
   1111.896     ,   676.4572    
   1113.887     ,   542.1247    
   1115.878     ,   498.0817    
   1117.867     ,   417.9981    
   1119.857     ,   343.1288    
   1121.845     ,   372.9867    
   1123.833     ,   289.9548    
   1125.819     ,   175.7556    
   1127.806     ,   384.4401    
   1129.791     ,   360.9883    
   1131.776     ,   315.4489    
   1133.760     ,   452.0751    
   1135.743     ,   181.6705    
   1137.725     ,   296.7018    
   1139.707     ,   153.9066    
   1141.688     ,   68.03468    
   1143.669     ,   400.6215    
   1145.648     ,   249.2909    
   1147.627     ,   209.0560    
   1149.605     ,   280.9369    
   1151.583     ,   195.2773    
   1153.559     ,   31.65858    
   1155.535     ,   280.8843    
   1157.510     ,   218.1288    
   1159.485     ,   147.1874    
   1161.458     ,   286.3694    
   1163.431     ,   254.2228    
   1165.404     ,   297.3416    
   1167.375     ,   76.39478    
   1169.346     ,   314.3357    
   1171.316     ,   88.01180    
   1173.286     ,   99.61652    
   1175.254     ,   307.7941    
   1177.222     ,   137.7316    
   1179.189     ,   102.5412    
   1181.156     ,   35.73428    
   1183.121     ,   132.7904    
   1185.086     ,   79.92730    
   1187.051     ,   57.66753    
   1189.014     ,   159.0031    
   1190.977     ,   185.5558    
   1192.939     ,   226.3150    
   1194.901     ,   134.2639    
   1196.861     ,   209.3450    
   1198.821     ,   323.3474    
   1200.780     ,   230.8924    
   1202.739     ,   142.4823    
   1204.697     ,   342.6297    
   1206.654     ,   226.9220    
   1208.610     ,   175.9991    
   1210.566     ,   186.5549    
   1212.521     ,   269.1190    
   1214.475     ,   216.8833    
   1216.428     ,   85.11007    
   1218.381     ,   119.3378    
   1220.333     ,   56.23579    
   1222.284     ,   124.1500    
   1224.235     ,   197.7846    
   1226.184     ,   21.77777    
   1228.134     ,   64.21492    
   1230.082     ,   193.6813    
   1232.030     ,   1.318977    
   1233.977     ,   268.5904    
   1235.923     ,   51.20829    
   1237.868     ,   30.39178    
   1239.813     ,   288.4769    
   1241.757     ,   55.01399    
   1243.701     ,   152.0504    
   1245.643     ,   123.0280    
   1247.585     ,   113.7667    
   1249.526     ,   120.1385    
   1251.467     ,   137.4185    
   1253.407     ,   289.9620    
   1255.346     ,   48.66569    
   1257.284     ,   43.68422    
   1259.222     ,   103.1759    
   1261.159     ,   188.0401    
   1263.095     ,   92.73214    
   1265.030     ,   166.7587    
   1266.965     ,   15.52106    
   1268.899     ,   187.0215    
   1270.833     ,   189.0536    
   1272.765     ,   14.38522    
   1274.697     ,   82.18903    
   1276.628     ,   122.1555    
   1278.559     ,   42.65443    
   1280.489     ,   69.33229    
   1282.418     ,   195.6762    
   1284.346     ,   49.13835    
   1286.274     ,   87.56960    
   1288.201     ,   87.84229    
   1290.127     ,   75.15262    
   1292.052     ,   100.3688    
   1293.977     ,   71.33366    
   1295.901     ,   80.69784    
   1297.825     ,   133.7388    
   1299.748     ,   180.1989    
   1301.670     ,   124.3769    
   1303.591     ,   263.6396    
   1305.511     ,   31.02647    
   1307.431     ,   5.493057    
   1309.350     ,   100.6518    
   1311.269     ,   146.3282    
   1313.187     ,   128.5345    
   1315.104     ,   99.91960    
   1317.020     ,   165.4592    
   1318.935     ,   211.3208    
   1320.850     ,   146.5409    
   1322.765     ,   228.1038    
   1324.678     ,   265.3349    
   1326.591     ,   224.2359    
   1328.503     ,   307.1295    
   1330.414     ,   136.8103    
   1332.325     ,   28.90856    
   1334.235     ,   142.1090    
   1336.144     ,   33.83636    
   1338.053     ,   80.13380    
   1339.961     ,   283.2282    
   1341.868     ,   107.6459    
   1343.774     ,   87.65623    
   1345.680     ,   290.9900    
   1347.585     ,   64.10753    
   1349.489     ,   75.21317    
   1351.393     ,   173.8259    
   1353.296     ,   26.38405    
   1355.198     ,   45.93259    
   1357.100     ,   182.5367    
   1359.000     ,   299.0512    
   1360.901     ,   143.4387    
   1362.800     ,   209.5484    
   1364.699     ,   36.61169    
   1366.597     ,   109.5155    
   1368.494     ,   102.3797    
   1370.391     ,   173.4864    
   1372.287     ,   300.8631    
   1374.182     ,   419.4101    
   1376.077     ,   41.39430    
   1377.970     ,   45.85887    
   1379.863     ,   221.2044    
   1381.756     ,   174.6159    
   1383.648     ,   112.7113    
   1385.539     ,   116.3476    
   1387.429     ,   288.8683    
   1389.319     ,   131.6258    
   1391.208     ,   221.8588    
   1393.096     ,   178.8042    
   1394.984     ,   206.0480    
   1396.870     ,   362.7825    
   1398.756     ,   242.1230    
   1400.642     ,   671.3303    
   1402.527     ,   468.7479    
   1404.411     ,   622.7734    
   1406.294     ,   824.4847    
   1408.177     ,   1060.065    
   1410.059     ,   1276.817    
   1411.940     ,   1054.201    
   1413.821     ,   951.8500    
   1415.701     ,   1159.751    
   1417.580     ,   896.5856    
   1419.459     ,   744.3234    
   1421.336     ,   588.9485    
   1423.214     ,   737.1003    
   1425.090     ,   531.3745    
   1426.966     ,   360.9728    
   1428.841     ,   425.2090    
   1430.715     ,   465.9139    
   1432.589     ,   377.6852    
   1434.462     ,   254.5764    
   1436.334     ,   359.3572    
   1438.206     ,   322.6112    
   1440.077     ,   179.2475    
   1441.947     ,   314.7167    
   1443.817     ,   239.4189    
   1445.686     ,   398.5464    
   1447.554     ,   384.4377    
   1449.421     ,   239.6535    
   1451.288     ,   273.4490    
   1453.154     ,   321.8036    
   1455.020     ,   299.9649    
   1456.884     ,   225.9332    
   1458.748     ,   160.6947    
   1460.612     ,   242.0967    
   1462.474     ,   60.02145    
   1464.337     ,   288.5267    
   1466.198     ,   406.6852    
   1468.058     ,   153.1369    
   1469.918     ,   158.3146    
   1471.778     ,   89.61919    
   1473.636     ,   240.9477    
   1475.494     ,   324.5349    
   1477.351     ,   386.8704    
   1479.208     ,   150.8488    
   1481.064     ,   88.66727    
   1482.919     ,   102.1063    
   1484.773     ,   307.8281    
   1486.627     ,   171.7810    
   1488.480     ,   352.0515    
   1490.333     ,   237.2799    
   1492.184     ,   319.3630    
   1494.035     ,   197.6549    
   1495.886     ,   171.1621    
   1497.735     ,   48.99929    
   1499.584     ,   165.7552    
   1501.433     ,   36.59367    
   1503.280     ,   25.19084    
   1505.127     ,   261.2903    
   1506.974     ,   195.6611    
   1508.819     ,   241.9629    
   1510.664     ,   94.18907    
   1512.509     ,   280.8862    
   1514.352     ,   163.3956    
   1516.195     ,   231.4494    
   1518.037     ,   218.7086    
   1519.879     ,   66.79121    
   1521.720     ,   286.9897    
   1523.560     ,   79.30640    
   1525.399     ,   17.37146    
   1527.238     ,   133.1109    
   1529.076     ,   220.3865    
   1530.914     ,   117.4292    
   1532.750     ,   191.7306    
   1534.587     ,   251.8032    
   1536.422     ,   229.7421    
   1538.257     ,   160.6299    
   1540.091     ,   143.4900    
   1541.924     ,   104.8637    
   1543.757     ,   37.12338    
   1545.589     ,   184.3788    
   1547.420     ,   54.83160    
   1549.251     ,   55.04778    
   1551.081     ,   106.1117    
   1552.911     ,   243.4850    
   1554.739     ,   109.4458    
   1556.567     ,   172.1926    
   1558.395     ,   190.5951    
   1560.221     ,   98.52257    
   1562.047     ,   318.2281    
   1563.873     ,   155.3065    
   1565.697     ,   145.4370    
   1567.521     ,   56.37888    
   1569.344     ,   248.6590    
   1571.167     ,   1.091881    
   1572.989     ,   249.1567    
   1574.810     ,   194.1919    
   1576.631     ,   99.67131    
   1578.451     ,   188.0616    
   1580.270     ,   153.5026    
   1582.089     ,   114.8391    
   1583.907     ,   319.9025    
   1585.724     ,   64.40761    
   1587.541     ,   377.9488    
   1589.357     ,   275.9936    
   1591.172     ,   122.8468    
   1592.986     ,   153.7840    
   1594.800     ,   40.25317    
   1596.614     ,   209.7783    
   1598.426     ,   97.24937    
   1600.238     ,   232.3585    
   1602.049     ,   120.4020    
   1603.860     ,   95.17539    
   1605.670     ,   48.90244    
   1607.479     ,   116.6915    
   1609.288     ,   192.6619    
   1611.096     ,   198.9100    
   1612.903     ,   51.69085    
   1614.709     ,   241.7983    
   1616.515     ,   347.8696    
   1618.321     ,   13.90842    
   1620.125     ,   181.8919    
   1621.929     ,   39.75650    
   1623.733     ,   43.25064    
   1625.535     ,   54.39687    
   1627.337     ,   18.58804    
   1629.138     ,   190.2197    
   1630.939     ,   315.1233    
   1632.739     ,   70.85185    
   1634.538     ,   188.1776    
   1636.337     ,   333.4801    
   1638.135     ,   80.29633    
   1639.932     ,   4.625320    
   1641.729     ,   247.3698    
   1643.525     ,   90.33699    
   1645.320     ,   227.0953    
   1647.115     ,   253.0608    
   1648.909     ,   42.91473    
   1650.702     ,   122.1469    
   1652.495     ,   124.4106    
   1654.287     ,   168.2804    
   1656.078     ,   236.6335    
   1657.869     ,   149.3383    
   1659.659     ,   253.4329    
   1661.448     ,   259.4021    
   1663.237     ,   195.5162    
   1665.025     ,   345.2452    
   1666.812     ,   82.39174    
   1668.599     ,   71.12005    
   1670.385     ,   249.4906    
   1672.171     ,   105.1771    
   1673.955     ,   162.5086    
   1675.739     ,   166.3009    
   1677.523     ,   183.3875    
   1679.306     ,   234.9479    
   1681.088     ,   186.5090    
   1682.869     ,   144.0218    
   1684.650     ,   121.4041    
   1686.430     ,   321.1852    
   1688.210     ,   171.7217    
   1689.989     ,   147.5480    
   1691.767     ,   3.205399    
   1693.544     ,   197.8142    
   1695.321     ,   141.8332    
   1697.097     ,   291.1088    
   1698.873     ,   91.63166    
   1700.648     ,   73.57951    
   1702.422     ,   282.2974    
   1704.196     ,   205.5349    
   1705.969     ,   325.5949    
   1707.741     ,   356.2350    
   1709.513     ,   82.38081    
   1711.284     ,   181.5744    
   1713.054     ,   407.7885    
   1714.824     ,   537.7012    
   1716.593     ,   800.9693    
   1718.361     ,   770.3047    
   1720.129     ,   1245.498    
   1721.896     ,   1034.705    
   1723.663     ,   948.8127    
   1725.428     ,   1201.611    
   1727.194     ,   1055.612    
   1728.958     ,   1215.388    
   1730.722     ,   732.3122    
   1732.485     ,   678.1161    
   1734.248     ,   452.5427    
   1736.010     ,   374.9961    
   1737.771     ,   450.9913    
   1739.531     ,   389.8072    
   1741.291     ,   344.2979    
   1743.051     ,   479.5783    
   1744.809     ,   127.8701    
   1746.567     ,   386.7529    
   1748.325     ,   58.50182    
   1750.082     ,   348.8996    
   1751.838     ,   212.2832    
   1753.593     ,   120.8884    
   1755.348     ,   2.224091    
   1757.102     ,   137.6494    
   1758.855     ,   211.9614    
   1760.608     ,   18.68328    
   1762.360     ,   27.20111    
   1764.112     ,   277.5467    
   1765.863     ,   245.5811    
   1767.613     ,   82.53294    
   1769.363     ,   208.5770    
   1771.112     ,   164.0768    
   1772.860     ,   323.1699    
   1774.608     ,   414.8980    
   1776.355     ,   146.4796    
   1778.101     ,   381.3181    
   1779.847     ,   494.6188    
   1781.592     ,   234.9853    
   1783.336     ,   78.29472    
   1785.080     ,   25.12371    
   1786.823     ,   125.0536    
   1788.566     ,   129.8979    
   1790.308     ,   102.2007    
   1792.049     ,   148.6709    
   1793.790     ,   178.8747    
   1795.530     ,   399.3637    
   1797.269     ,   209.4805    
   1799.008     ,   349.7870    
   1800.746     ,   274.0393    
   1802.483     ,   55.66602    
   1804.220     ,   111.0316    
   1805.956     ,   311.7574    
   1807.692     ,   208.3082    
   1809.426     ,   176.9406    
   1811.161     ,   193.8804    
   1812.894     ,   116.5088    
   1814.627     ,   446.5800    
   1816.359     ,   40.54707    
   1818.091     ,   328.4081    
   1819.822     ,   163.2688    
   1821.552     ,   10.29066    
   1823.282     ,   164.8576    
   1825.011     ,   88.61295    
   1826.740     ,   163.1673    
   1828.468     ,   183.5289    
   1830.195     ,   321.3257    
   1831.921     ,   287.6183    
   1833.647     ,   29.89355    
   1835.372     ,   188.9676    
   1837.097     ,   175.5011    
   1838.821     ,   91.92823    
   1840.544     ,   4.773933    
   1842.267     ,   17.43522    
   1843.989     ,   224.1165    
   1845.711     ,   73.85311    
   1847.432     ,   120.1833    
   1849.152     ,   151.4284    
   1850.871     ,   37.91490    
   1852.590     ,   214.1313    
   1854.309     ,   114.0607    
   1856.026     ,   126.6923    
   1857.743     ,   136.9477    
   1859.460     ,   79.23022    
   1861.176     ,   46.32291    
   1862.891     ,   85.03612    
   1864.605     ,   379.8666    
   1866.319     ,   405.6392    
   1868.032     ,   214.7708    
   1869.745     ,   413.7162    
   1871.457     ,   13.94553    
   1873.168     ,   43.41975    
   1874.879     ,   195.8017    
   1876.589     ,   332.8122    
   1878.298     ,   84.74815    
   1880.007     ,   58.75168    
   1881.716     ,   104.2577    
   1883.423     ,   283.9904    
   1885.130     ,   320.4863    
   1886.836     ,   125.6624    
   1888.542     ,   80.13907    
   1890.247     ,   170.4162    
   1891.952     ,   121.9683    
   1893.655     ,   96.84936    
   1895.358     ,   207.8813    
   1897.061     ,   268.4783    
   1898.763     ,   139.3187    
   1900.464     ,   128.0816    
   1902.165     ,   5.792656    
   1903.865     ,   240.6945    
   1905.564     ,   420.5826    
   1907.263     ,   176.9403    
   1908.961     ,   54.03612    
   1910.659     ,   136.8663    
   1912.356     ,   334.8885    
   1914.052     ,   137.2071    
   1915.748     ,   110.4581    
   1917.443     ,   98.82758    
   1919.137     ,   139.0384    
   1920.831     ,   39.60397    
   1922.524     ,   157.3756    
   1924.216     ,   133.3635    
   1925.908     ,   35.58594    
   1927.600     ,   103.4088    
   1929.290     ,   49.08514    
   1930.980     ,   260.5588    
   1932.670     ,   202.6508    
   1934.358     ,   175.2824    
   1936.047     ,   158.3656    
   1937.734     ,   305.7612    
   1939.421     ,   302.9852    
   1941.107     ,   110.6958    
   1942.793     ,   47.91612    
   1944.478     ,   123.9382    
   1946.162     ,   253.8210    
   1947.846     ,   179.0822    
   1949.529     ,   116.0833    
   1951.212     ,   206.8901    
   1952.894     ,   97.54852    
   1954.575     ,   121.1955    
   1956.256     ,   176.4448    
   1957.936     ,   175.7136    
   1959.616     ,   319.6900    
   1961.294     ,   131.0055    
   1962.973     ,   229.0301    
   1964.650     ,   119.1361    
   1966.327     ,   10.39112    
   1968.004     ,   245.6125    
   1969.679     ,   164.0397    
   1971.354     ,   114.1398    
   1973.029     ,   286.7214    
   1974.703     ,   158.3527    
   1976.376     ,   160.6425    
   1978.049     ,   364.0481    
   1979.721     ,   351.5708    
   1981.392     ,   32.67901    
   1983.063     ,   308.3808    
   1984.733     ,   41.00528    
   1986.403     ,   135.5688    
   1988.072     ,   231.9845    
   1989.740     ,   230.4218    
   1991.408     ,   112.6572    
   1993.075     ,   253.6399    
   1994.742     ,   251.6119    
   1996.407     ,   2.678955    
   1998.073     ,   242.0073    
   1999.737     ,   309.4460    
   2001.401     ,   382.0089    
   2003.065     ,   43.80901    
   2004.728     ,   383.5720    
   2006.390     ,   98.33431    
   2008.051     ,   92.88834    
   2009.712     ,   273.4153    
   2011.373     ,   79.54740    
   2013.033     ,   114.5910    
   2014.692     ,   271.1103    
   2016.350     ,   73.13242    
   2018.008     ,   42.23969    
   2019.665     ,   117.0294    
   2021.322     ,   137.2191    
   2022.978     ,   133.2619    
   2024.634     ,   453.2284    
   2026.288     ,   192.9165    
   2027.943     ,   283.7551    
   2029.596     ,   381.8728    
   2031.249     ,   133.2431    
   2032.902     ,   47.20292    
   2034.554     ,   43.27689    
   2036.205     ,   131.2380    
   2037.855     ,   53.66368    
   2039.505     ,   179.7688    
   2041.155     ,   277.7372    
   2042.803     ,   250.6838    
   2044.452     ,   306.0960    
   2046.099     ,   287.2898    
   2047.746     ,   63.41087    
   2049.392     ,   143.7771    
   2051.038     ,   436.9518    
   2052.683     ,   261.1686    
   2054.328     ,   195.8980    
   2055.972     ,   219.5638    
   2057.615     ,   328.2161    
   2059.258     ,   283.5963    
   2060.900     ,   171.2928    
   2062.541     ,   304.7126    
   2064.182     ,   308.7316    
   2065.822     ,   221.3757    
   2067.462     ,   94.74017    
   2069.101     ,   163.3876    
   2070.740     ,   27.57149    
   2072.377     ,   299.2477    
   2074.014     ,   339.9080    
   2075.651     ,   115.9349    
   2077.287     ,   39.92099    
   2078.923     ,   267.1214    
   2080.557     ,   345.6685    
   2082.192     ,   188.3599    
   2083.825     ,   173.0686    
   2085.458     ,   273.2327    
   2087.091     ,   181.3123    
   2088.722     ,   361.7360    
   2090.354     ,   163.0276    
   2091.984     ,   9.640617    
   2093.614     ,   367.0479    
   2095.243     ,   309.1798    
   2096.872     ,   189.8763    
   2098.500     ,   174.4769    
   2100.128     ,   263.1405    
   2101.755     ,   2.446999    
   2103.381     ,   188.9503    
   2105.007     ,   372.3211    
   2106.632     ,   126.6840    
   2108.257     ,   351.8024    
   2109.881     ,   452.4399    
   2111.504     ,   109.7702    
   2113.127     ,   9.254929    
   2114.749     ,   173.3547    
   2116.371     ,   293.4065    
   2117.992     ,   371.0545    
   2119.612     ,   290.9222    
   2121.232     ,   329.8605    
   2122.851     ,   264.5172    
   2124.470     ,   334.3468    
   2126.088     ,   258.1908    
   2127.705     ,   318.2087    
   2129.322     ,   246.7207    
   2130.938     ,   387.6561    
   2132.553     ,   140.2982    
   2134.168     ,   489.4368    
   2135.783     ,   250.3894    
   2137.397     ,   524.9460    
   2139.010     ,   369.8470    
   2140.623     ,   61.59151    
   2142.235     ,   90.03579    
   2143.846     ,   302.2870    
   2145.457     ,   343.5963    
   2147.067     ,   366.8474    
   2148.677     ,   314.4351    
   2150.286     ,   324.4612    
   2151.894     ,   399.5270    
   2153.502     ,   237.6360    
   2155.109     ,   305.7077    
   2156.716     ,   229.0688    
   2158.322     ,   49.23528    
   2159.927     ,   344.2036    
   2161.532     ,   41.97112    
   2163.136     ,   314.8275    
   2164.740     ,   236.6652    
   2166.343     ,   318.8593    
   2167.946     ,   334.6148    
   2169.548     ,   471.2971    
   2171.149     ,   184.4270    
   2172.750     ,   281.3780    
   2174.350     ,   435.4899    
   2175.949     ,   296.3055    
   2177.548     ,   150.5041    
   2179.147     ,   211.5594    
   2180.745     ,   86.78132    
   2182.342     ,   314.7375    
   2183.938     ,   76.72232    
   2185.534     ,   101.4915    
   2187.130     ,   92.05591    
   2188.724     ,   27.71056    
   2190.319     ,   193.1194    
   2191.912     ,   44.45197    
   2193.505     ,   308.9380    
   2195.098     ,   219.7684    
   2196.690     ,   265.0304    
   2198.281     ,   225.7066    
   2199.872     ,   211.3714    
   2201.462     ,   231.8369    
   2203.051     ,   478.9265    
   2204.640     ,   238.3815    
   2206.229     ,   122.0266    
   2207.816     ,   182.8156    
   2209.403     ,   206.1389    
   2210.990     ,   196.8493    
   2212.576     ,   290.8143    
   2214.161     ,   137.3376    
   2215.746     ,   150.5596    
   2217.330     ,   285.7765    
   2218.914     ,   44.09856    
   2220.497     ,   134.5834    
   2222.079     ,   394.9456    
   2223.661     ,   160.3113    
   2225.243     ,   138.0885    
   2226.823     ,   273.3050    
   2228.404     ,   105.9725    
   2229.983     ,   371.5048    
   2231.562     ,   142.9295    
   2233.140     ,   183.5818    
   2234.718     ,   195.5980    
   2236.295     ,   477.4850    
   2237.872     ,   315.1981    
   2239.448     ,   574.0212    
   2241.023     ,   219.1663    
   2242.598     ,   173.3205    
   2244.172     ,   176.4133    
   2245.746     ,   119.9272    
   2247.319     ,   306.8763    
   2248.892     ,   99.03526    
   2250.464     ,   403.5321    
   2252.035     ,   311.1280    
   2253.606     ,   144.3376    
   2255.176     ,   183.6148    
   2256.746     ,   158.2641    
   2258.315     ,   505.4706    
   2259.883     ,   303.3639    
   2261.451     ,   345.9698    
   2263.018     ,   112.5151    
   2264.585     ,   336.8896    
   2266.151     ,   124.6470    
   2267.717     ,   375.1755    
   2269.282     ,   220.2368    
   2270.846     ,   335.5569    
   2272.410     ,   51.17976    
   2273.973     ,   211.6174    
   2275.536     ,   406.6196    
   2277.098     ,   364.0181    
   2278.659     ,   142.1996    
   2280.220     ,   529.1978    
   2281.781     ,   211.8454    
   2283.340     ,   339.4676    
   2284.899     ,   57.51209    
   2286.458     ,   176.5655    
   2288.016     ,   186.6680    
   2289.573     ,   172.3977    
   2291.130     ,   181.3244    
   2292.687     ,   349.0802    
   2294.242     ,   212.5665    
   2295.798     ,   22.09338    
   2297.352     ,   104.8515    
   2298.906     ,   108.7750    
   2300.459     ,   229.5344    
   2302.012     ,   400.0173    
   2303.565     ,   134.0595    
   2305.116     ,   104.1705    
   2306.667     ,   272.0121    
   2308.218     ,   236.9390    
   2309.768     ,   190.7133    
   2311.317     ,   171.4434    
   2312.866     ,   392.5937    
   2314.414     ,   440.2533    
   2315.962     ,   335.0049    
   2317.509     ,   450.4335    
   2319.055     ,   309.1332    
   2320.602     ,   290.0262    
   2322.147     ,   444.3346    
   2323.692     ,   4.250397    
   2325.236     ,   113.7143    
   2326.780     ,   345.5932    
   2328.323     ,   190.3965    
   2329.865     ,   282.0111    
   2331.407     ,   222.6035    
   2332.948     ,   242.3511    
   2334.489     ,   61.77950    
   2336.029     ,   272.3957    
   2337.569     ,   61.63545    
   2339.108     ,   69.54826    
   2340.646     ,   314.7315    
   2342.184     ,   238.3360    
   2343.722     ,   280.1342    
   2345.259     ,   268.8095    
   2346.795     ,   333.8636    
   2348.330     ,   93.19653    
   2349.865     ,   65.21242    
   2351.400     ,   190.9704    
   2352.934     ,   177.5178    
   2354.467     ,   37.52390    
   2356.000     ,   294.9825    
   2357.532     ,   278.2411    
   2359.064     ,   218.2930    
   2360.595     ,   153.4540    
   2362.125     ,   346.6765    
   2363.655     ,  8.6562999E-02
   2365.185     ,   6.410019    
   2366.714     ,   461.5308    
   2368.242     ,   317.7455    
   2369.770     ,   88.67826    
   2371.297     ,   395.0295    
   2372.823     ,   259.8575    
   2374.349     ,   213.1405    
   2375.875     ,   479.8420    
   2377.399     ,   174.6604    
   2378.924     ,   167.7956    
   2380.447     ,   271.8054    
   2381.970     ,   217.1240    
   2383.493     ,   308.3306    
   2385.015     ,   284.8458    
   2386.536     ,   229.9375    
   2388.057     ,   43.49301    
   2389.578     ,   186.7791    
   2391.097     ,   18.78994    
   2392.616     ,   277.0725    
   2394.135     ,   91.59201    
   2395.653     ,   109.9882    
   2397.171     ,   11.54823    
   2398.688     ,   412.4950    
   2400.204     ,   345.1069    
   2401.720     ,   153.5442    
   2403.235     ,   141.4153    
   2404.750     ,   61.11159    
   2406.264     ,   389.8590    
   2407.777     ,   315.0944    
   2409.290     ,   503.3143    
   2410.802     ,   84.22235    
   2412.314     ,   61.32880    
   2413.826     ,   126.4781    
   2415.336     ,   463.5854    
   2416.847     ,   160.9038    
   2418.356     ,   365.8077    
   2419.865     ,   349.2016    
   2421.374     ,   215.0077    
   2422.882     ,   110.2175    
   2424.389     ,   356.5848    
   2425.896     ,   225.5136    
   2427.402     ,   356.6258    
   2428.908     ,   218.0645    
   2430.413     ,   533.3195    
   2431.917     ,   280.8750    
   2433.421     ,   7.151207    
   2434.925     ,   391.3407    
   2436.428     ,   520.1203    
   2437.930     ,   75.47985    
   2439.432     ,   231.4484    
   2440.933     ,   143.2069    
   2442.434     ,   278.8270    
   2443.934     ,   162.6720    
   2445.433     ,   317.4379    
   2446.932     ,   467.7411    
   2448.431     ,   78.22867    
   2449.928     ,   90.29079    
   2451.426     ,   181.0187    
   2452.922     ,   324.1237    
   2454.419     ,   494.8896    
   2455.914     ,   375.8701    
   2457.409     ,   508.7158    
   2458.904     ,   259.9703    
   2460.398     ,   355.5517    
   2461.891     ,   327.6331    
   2463.384     ,   243.6168    
   2464.876     ,   154.1456    
   2466.368     ,   245.1906    
   2467.859     ,   4.939949    
   2469.350     ,   158.5142    
   2470.840     ,   213.5389    
   2472.329     ,   413.6880    
   2473.818     ,   272.2994    
   2475.307     ,   314.7701    
   2476.794     ,   339.6016    
   2478.282     ,   214.5379    
   2479.769     ,   30.25784    
   2481.255     ,   663.8234    
   2482.740     ,   338.1273    
   2484.225     ,   458.3450    
   2485.710     ,   281.7686    
   2487.194     ,   322.0116    
   2488.677     ,   30.00761    
   2490.160     ,   627.7003    
   2491.642     ,   251.7924    
   2493.124     ,   70.61050    
   2494.605     ,   500.4933    
   2496.086     ,   455.7065    
   2497.566     ,   256.6638    
   2499.046     ,   429.7907    
   2500.525     ,   303.2382    
   2502.003     ,   294.3783    
   2503.481     ,   607.4652    
   2504.958     ,   285.2543    
   2506.435     ,   521.2617    
   2507.911     ,   276.8032    
   2509.387     ,   793.0700    
   2510.862     ,   312.3167    
   2512.337     ,   600.9271    
   2513.811     ,   274.3331    
   2515.284     ,   323.2019    
   2516.757     ,   369.6008    
   2518.229     ,   244.9010    
   2519.701     ,   351.2103    
   2521.173     ,   456.8404    
   2522.643     ,   443.4575    
   2524.114     ,   427.3528    
   2525.583     ,   445.2368    
   2527.052     ,   170.6509    
   2528.521     ,   395.1517    
   2529.989     ,   347.3036    
   2531.456     ,   417.1503    
   2532.923     ,   157.0970    
   2534.389     ,   70.97757    
   2535.855     ,   176.9003    
   2537.320     ,   601.9368    
   2538.785     ,   381.9501    
   2540.249     ,   246.5127    
   2541.713     ,   93.75868    
   2543.176     ,   634.7546    
   2544.638     ,   449.0917    
   2546.100     ,   166.7570    
   2547.562     ,   364.1362    
   2549.023     ,   271.2286    
   2550.483     ,   393.1967    
   2551.943     ,   131.3087    
   2553.402     ,   404.2110    
   2554.861     ,   600.5933    
   2556.319     ,   267.1041    
   2557.776     ,   545.6395    
   2559.233     ,   125.6798    
   2560.690     ,   224.5875    
   2562.146     ,   615.2836    
   2563.601     ,   145.6723    
   2565.056     ,   250.1736    
   2566.511     ,   347.1115    
   2567.964     ,   388.8264    
   2569.418     ,   278.0212    
   2570.870     ,   322.4565    
   2572.323     ,   341.0747    
   2573.774     ,   209.7201    
   2575.225     ,   357.8095    
   2576.676     ,   112.2729    
   2578.126     ,   264.7320    
   2579.575     ,   231.5897    
   2581.024     ,   6.342453    
   2582.472     ,   613.3495    
   2583.920     ,   543.3138    
   2585.368     ,   522.9620    
   2586.814     ,   623.1909    
   2588.260     ,   17.45360    
   2589.706     ,   95.05257    
   2591.151     ,   516.2133    
   2592.596     ,   89.23489    
   2594.040     ,   163.5837    
   2595.483     ,   37.05811    
   2596.927     ,   286.8271    
   2598.369     ,   66.72675    
   2599.811     ,   428.4037    
   2601.252     ,   386.0160    
   2602.693     ,   382.7774    
   2604.133     ,   361.1488    
   2605.573     ,   309.5927    
   2607.012     ,   328.3023    
   2608.451     ,   270.1784    
   2609.889     ,   606.6215    
   2611.326     ,   300.2802    
   2612.763     ,   248.3401    
   2614.200     ,   682.3663    
   2615.636     ,   256.2977    
   2617.071     ,   409.4830    
   2618.506     ,   395.7688    
   2619.940     ,   141.8778    
   2621.374     ,   329.4375    
   2622.807     ,   308.4966    
   2624.240     ,   314.0219    
   2625.672     ,   660.3833    
   2627.104     ,   642.8588    
   2628.535     ,   526.0405    
   2629.966     ,   529.7906    
   2631.396     ,   97.94640    
   2632.825     ,   422.5345    
   2634.254     ,   675.8900    
   2635.683     ,   578.0095    
   2637.111     ,   198.0774    
   2638.538     ,   43.30792    
   2639.965     ,   651.9225    
   2641.391     ,   441.6426    
   2642.817     ,   507.5384    
   2644.242     ,   681.2806    
   2645.667     ,   16.87986    
   2647.091     ,   463.2157    
   2648.514     ,   543.2218    
   2649.938     ,   137.1470    
   2651.360     ,   348.8304    
   2652.782     ,   348.5564    
   2654.204     ,   634.0305    
   2655.625     ,   657.5658    
   2657.045     ,   406.8178    
   2658.465     ,   287.5287    
   2659.884     ,   2.087143    
   2661.303     ,   292.7610    
   2662.721     ,   438.1730    
   2664.139     ,   305.5596    
   2665.556     ,   170.7821    
   2666.973     ,   178.1612    
   2668.389     ,   425.8750    
   2669.805     ,   397.0513    
   2671.220     ,   384.2336    
   2672.635     ,   499.9993    
   2674.049     ,   46.18670    
   2675.462     ,   426.7633    
   2676.875     ,   26.99006    
   2678.288     ,   515.3616    
   2679.699     ,   547.3546    
   2681.111     ,   652.2665    
   2682.522     ,   568.4716    
   2683.932     ,   649.9890    
   2685.342     ,   383.0022    
   2686.751     ,   800.2934    
   2688.160     ,   443.1059    
   2689.568     ,   520.3696    
   2690.976     ,   604.8131    
   2692.383     ,   439.6825    
   2693.790     ,   201.7050    
   2695.196     ,   615.4275    
   2696.601     ,   585.3694    
   2698.006     ,   612.0120    
   2699.411     ,   334.2378    
   2700.815     ,   526.0076    
   2702.218     ,   551.6326    
   2703.621     ,   524.4040    
   2705.023     ,   150.8427    
   2706.425     ,   524.2358    
   2707.827     ,   172.1614    
   2709.227     ,   176.6887    
   2710.628     ,   37.17255    
   2712.027     ,   548.6544    
   2713.427     ,   419.4527    
   2714.825     ,   431.7157    
   2716.224     ,   360.7316    
   2717.621     ,   566.1322    
   2719.018     ,   348.2785    
   2720.415     ,   609.3162    
   2721.811     ,   222.4704    
   2723.207     ,   259.4084    
   2724.602     ,   540.3337    
   2725.996     ,   372.6656    
   2727.390     ,   696.6943    
   2728.783     ,   540.5242    
   2730.177     ,   765.3158    
   2731.569     ,   304.3095    
   2732.961     ,   477.5730    
   2734.352     ,   525.5555    
   2735.743     ,   644.6423    
   2737.133     ,   217.7445    
   2738.523     ,   563.1396    
   2739.912     ,   495.0194    
   2741.301     ,   481.6277    
   2742.689     ,   603.2616    
   2744.077     ,   549.2119    
   2745.464     ,   450.3752    
   2746.851     ,   337.2398    
   2748.237     ,   523.2714    
   2749.623     ,   602.6986    
   2751.008     ,   28.43353    
   2752.392     ,   674.7681    
   2753.776     ,   460.9518    
   2755.160     ,   276.4908    
   2756.543     ,   297.1380    
   2757.925     ,   251.3815    
   2759.307     ,   488.9242    
   2760.688     ,   374.6447    
   2762.070     ,   375.9802    
   2763.450     ,   650.0138    
   2764.830     ,   61.77043    
   2766.209     ,   548.5275    
   2767.588     ,   564.2830    
   2768.966     ,   324.3593    
   2770.344     ,   487.5823    
   2771.721     ,   82.65219    
   2773.098     ,   409.6708    
   2774.474     ,   236.2540    
   2775.850     ,   261.8032    
   2777.225     ,   636.7792    
   2778.600     ,   637.4252    
   2779.974     ,   408.5416    
   2781.348     ,   671.3132    
   2782.721     ,   171.5082    
   2784.093     ,   15.23036    
   2785.465     ,   475.6484    
   2786.837     ,   585.3002    
   2788.208     ,   48.63014    
   2789.579     ,   616.1764    
   2790.948     ,   721.7131    
   2792.318     ,   268.1635    
   2793.687     ,   390.4285    
   2795.055     ,   489.0362    
   2796.423     ,   577.5759    
   2797.791     ,   514.6562    
   2799.158     ,   47.81241    
   2800.524     ,   201.4339    
   2801.890     ,   71.23338    
   2803.255     ,   343.9042    
   2804.620     ,   391.6681    
   2805.985     ,   360.3925    
   2807.348     ,   451.4697    
   2808.712     ,   388.1989    
   2810.074     ,   398.7041    
   2811.437     ,   280.8036    
   2812.799     ,   189.0014    
   2814.160     ,   575.6039    
   2815.521     ,   600.6866    
   2816.881     ,   754.6296    
   2818.240     ,   249.4682    
   2819.600     ,   173.1232    
   2820.958     ,   915.5678    
   2822.316     ,   273.4040    
   2823.674     ,   385.2177    
   2825.031     ,   321.5880    
   2826.388     ,   44.73334    
   2827.744     ,   574.0933    
   2829.099     ,   501.7020    
   2830.455     ,   450.5872    
   2831.809     ,   158.0899    
   2833.163     ,   663.4173    
   2834.517     ,   604.2796    
   2835.870     ,   239.9517    
   2837.222     ,   361.6288    
   2838.574     ,   482.7664    
   2839.926     ,   705.4525    
   2841.277     ,   433.6161    
   2842.627     ,   80.13730    
   2843.977     ,   651.2519    
   2845.326     ,   259.4809    
   2846.676     ,   314.0349    
   2848.024     ,   41.31900    
   2849.372     ,   208.5102    
   2850.719     ,   15.65533    
   2852.066     ,   78.93150    
   2853.412     ,   210.0594    
   2854.758     ,   148.3491    
   2856.104     ,   338.7741    
   2857.448     ,   621.4042    
   2858.793     ,   212.9044    
   2860.137     ,   405.4435    
   2861.480     ,   471.4899    
   2862.823     ,   67.33698    
   2864.165     ,   169.6216    
   2865.507     ,   650.2075    
   2866.848     ,   699.4471    
   2868.189     ,   487.0268    
   2869.529     ,   125.8894    
   2870.869     ,   647.6993    
   2872.208     ,   325.7523    
   2873.547     ,   415.2256    
   2874.885     ,   384.5482    
   2876.223     ,   173.6200    
   2877.560     ,   698.3545    
   2878.897     ,   483.0229    
   2880.233     ,   596.6824    
   2881.569     ,   586.8546    
   2882.904     ,   286.5184    
   2884.239     ,   365.2259    
   2885.573     ,   104.6398    
   2886.906     ,   283.8721    
   2888.240     ,   12.02399    
   2889.572     ,   465.9347    
   2890.905     ,   500.4073    
   2892.236     ,   478.9704    
   2893.567     ,   804.6533    
   2894.898     ,   524.8136    
   2896.228     ,   350.2155    
   2897.558     ,   358.6308    
   2898.887     ,   303.6571    
   2900.215     ,   590.6875    
   2901.543     ,   418.8244    
   2902.871     ,   482.7852    
   2904.198     ,   500.9548    
   2905.525     ,   348.2260    
   2906.851     ,   847.6141    
   2908.177     ,   828.2693    
   2909.502     ,   191.5060    
   2910.826     ,   361.1577    
   2912.150     ,   107.4697    
   2913.474     ,   374.1530    
   2914.797     ,   607.9769    
   2916.119     ,   800.0146    
   2917.442     ,   98.97540    
   2918.763     ,   530.0399    
   2920.084     ,   781.5282    
   2921.405     ,   289.1375    
   2922.725     ,   517.6281    
   2924.044     ,   123.2480    
   2925.364     ,   514.7078    
   2926.682     ,   601.7437    
   2928.000     ,   805.0793    
   2929.318     ,   379.8176    
   2930.635     ,   819.7648    
   2931.951     ,   409.6763    
   2933.267     ,   625.2136    
   2934.583     ,   533.1768    
   2935.898     ,   266.7728    
   2937.212     ,   691.3046    
   2938.526     ,   747.9963    
   2939.840     ,   396.8378    
   2941.153     ,   669.1439    
   2942.466     ,   666.1888    
   2943.778     ,   699.1996    
   2945.089     ,   742.4916    
   2946.400     ,   191.7192    
   2947.711     ,   742.0711    
   2949.021     ,   711.5894    
   2950.330     ,   459.4009    
   2951.639     ,   664.0551    
   2952.948     ,   395.5019    
   2954.256     ,   207.6527    
   2955.563     ,   283.0176    
   2956.870     ,   31.16148    
   2958.177     ,   30.94638    
   2959.483     ,   788.8256    
   2960.789     ,   425.7600    
   2962.094     ,   658.0540    
   2963.398     ,   137.3598    
   2964.702     ,   402.8107    
   2966.006     ,   534.9547    
   2967.309     ,   805.5842    
   2968.611     ,   887.0326    
   2969.914     ,   867.0184    
   2971.215     ,   847.0120    
   2972.516     ,   697.1866    
   2973.817     ,   453.4392    
   2975.117     ,   403.3703    
   2976.417     ,   469.3561    
   2977.716     ,   223.3190    
   2979.014     ,   479.2310    
   2980.312     ,   19.16786    
   2981.610     ,   824.5480    
   2982.907     ,   496.2520    
   2984.204     ,   590.7060    
   2985.500     ,   460.5766    
   2986.795     ,   24.23303    
   2988.090     ,   227.4018    
   2989.385     ,   25.01054    
   2990.679     ,   639.8284    
   2991.973     ,   287.1732    
   2993.266     ,   40.98933    
   2994.559     ,   43.74850    
   2995.851     ,   379.6936    
   2997.142     ,   300.8424    
   2998.434     ,   326.8625    
   2999.724     ,   383.2166    
   3001.014     ,   173.0077    
   3002.304     ,   631.6150    
   3003.593     ,   170.6019    
   3004.882     ,   36.87390    
   3006.170     ,   536.8383    
   3007.458     ,   867.2439    
   3008.745     ,   297.8247    
   3010.032     ,   684.3437    
   3011.318     ,   45.90228    
   3012.604     ,   445.2845    
   3013.889     ,   38.70894    
   3015.174     ,   793.6287    
   3016.458     ,   651.7323    
   3017.742     ,   73.52039    
   3019.025     ,   512.7548    
   3020.308     ,   718.9180    
   3021.590     ,   505.1074    
   3022.872     ,   408.0355    
   3024.154     ,   438.1226    
   3025.434     ,   925.7247    
   3026.715     ,   673.4199    
   3027.995     ,   93.75693    
   3029.274     ,   523.6315    
   3030.553     ,   992.5616    
   3031.831     ,   286.5159    
   3033.109     ,   303.1323    
   3034.386     ,   409.4338    
   3035.664     ,   42.87215    
   3036.940     ,   797.4559    
   3038.216     ,   789.4438    
   3039.491     ,   775.5477    
   3040.766     ,   214.6072    
   3042.041     ,   109.8194    
   3043.315     ,   880.3742    
   3044.588     ,   341.7957    
   3045.861     ,   519.1583    
   3047.134     ,   956.7872    
   3048.406     ,   490.0007    
   3049.677     ,   918.8005    
   3050.948     ,   960.2239    
   3052.219     ,   393.9887    
   3053.489     ,   827.2667    
   3054.759     ,   895.3345    
   3056.028     ,   925.3495    
   3057.296     ,   720.4364    
   3058.564     ,   1021.391    
   3059.832     ,   61.58940    
   3061.099     ,   209.7428    
   3062.366     ,   784.0426    
   3063.632     ,   442.4696    
   3064.898     ,   452.7438    
   3066.163     ,   1022.985    
   3067.428     ,   758.1606    
   3068.692     ,   906.3184    
   3069.956     ,   862.5378    
   3071.219     ,   555.1383    
   3072.482     ,   704.0312    
   3073.744     ,   1045.254    
   3075.006     ,   272.1123    
   3076.267     ,   939.1812    
   3077.528     ,   919.9488    
   3078.788     ,   738.2224    
   3080.048     ,   78.96597    
   3081.308     ,   287.2211    
   3082.566     ,   217.2900    
   3083.825     ,   212.9977    
   3085.083     ,   950.7666    
   3086.340     ,   509.6499    
   3087.597     ,   740.4308    
   3088.854     ,   971.2115    
   3090.110     ,   791.4502    
   3091.365     ,   750.9540    
   3092.620     ,   941.1093    
   3093.875     ,   832.4804    
   3095.129     ,   813.3523    
   3096.382     ,   41.10161    
   3097.635     ,   397.5683    
   3098.888     ,   580.3998    
   3100.140     ,   826.6977    
   3101.392     ,   773.2868    
   3102.643     ,   1012.017    
   3103.894     ,   449.9955    
   3105.144     ,   1067.389    
   3106.394     ,   846.9551    
   3107.643     ,   1072.112    
   3108.892     ,   683.0263    
   3110.140     ,   543.2795    
   3111.388     ,   1138.283    
   3112.635     ,   409.3896    
   3113.882     ,   299.6004    
   3115.128     ,   149.4551    
   3116.374     ,   877.8362    
   3117.619     ,   443.9689    
   3118.864     ,   441.4150    
   3120.109     ,   438.8739    
   3121.353     ,   1001.947    
   3122.596     ,   862.1980    
   3123.839     ,   723.7251    
   3125.082     ,   327.8376    
   3126.324     ,   624.7166    
   3127.565     ,   787.6075    
   3128.806     ,   913.1237    
   3130.047     ,   989.8945    
   3131.287     ,   509.1996    
   3132.527     ,   576.0593    
   3133.766     ,   453.7444    
   3135.004     ,   99.05411    
   3136.243     ,   848.5154    
   3137.480     ,   509.8972    
   3138.718     ,   453.9864    
   3139.954     ,   592.3336    
   3141.191     ,   730.6754    
   3142.427     ,   1027.115    
   3143.662     ,   1028.583    
   3144.897     ,   100.0086    
   3146.131     ,   385.0895    
   3147.365     ,   1003.200    
   3148.598     ,   499.4483    
   3149.831     ,   600.3013    
   3151.064     ,   1193.479    
   3152.296     ,   870.6179    
   3153.527     ,   257.3845    
   3154.758     ,   927.5214    
   3155.989     ,   659.0125    
   3157.219     ,   128.9592    
   3158.448     ,   675.3598    
   3159.677     ,   681.2573    
   3160.906     ,   371.0262    
   3162.135     ,   63.96419    
   3163.362     ,   333.1595    
   3164.589     ,   39.91441    
   3165.816     ,   391.7854    
   3167.042     ,   252.0819    
   3168.268     ,   362.3947    
   3169.493     ,   75.58942    
   3170.718     ,   4.336746    
   3171.943     ,   66.88771    
   3173.167     ,   901.8815    
   3174.390     ,   1038.005    
   3175.613     ,   251.2298    
   3176.835     ,   4.532043    
   3178.058     ,   61.81287    
   3179.279     ,   132.9476    
   3180.500     ,   184.5082    
   3181.721     ,   1055.569    
   3182.941     ,   1202.552    
   3184.160     ,   930.7130    
   3185.380     ,   1217.965    
   3186.598     ,   960.9468    
   3187.816     ,   703.9227    
   3189.034     ,   754.9688    
   3190.251     ,   19.36810    
   3191.468     ,   217.0962    
   3192.685     ,   582.6022    
   3193.900     ,   877.7892    
   3195.116     ,   520.1873    
   3196.331     ,   22.56549    
   3197.545     ,   891.8238    
   3198.759     ,   142.3772    
   3199.973     ,   805.0226    
   3201.186     ,   834.6128    
   3202.398     ,   889.4435    
   3203.610     ,   944.2667    
   3204.822     ,   797.9400    
   3206.033     ,   591.5967    
   3207.244     ,   948.3916    
   3208.454     ,   485.2853    
   3209.664     ,   212.6711    
   3210.873     ,   763.5777    
   3212.082     ,   1106.442    
   3213.290     ,   21.64806    
   3214.498     ,   808.6710    
   3215.705     ,   1013.290    
   3216.912     ,   1217.950    
   3218.119     ,   1055.489    
   3219.325     ,   1004.178    
   3220.530     ,   615.7036    
   3221.735     ,   245.1743    
   3222.940     ,   292.6887    
   3224.144     ,   297.1693    
   3225.347     ,   792.1473    
   3226.551     ,   928.3315    
   3227.753     ,   698.8002    
   3228.956     ,   227.6730    
   3230.157     ,   673.2535    
   3231.358     ,   579.9455    
   3232.559     ,   927.1543    
   3233.760     ,   410.3781    
   3234.959     ,   1000.949    
   3236.159     ,   947.2002    
   3237.358     ,   543.3720    
   3238.556     ,   990.9540    
   3239.754     ,   387.3402    
   3240.952     ,   727.0335    
   3242.149     ,   680.1285    
   3243.346     ,   161.1015    
   3244.542     ,   859.9150    
   3245.737     ,   1113.927    
   3246.933     ,   1014.310    
   3248.127     ,   1235.855    
   3249.322     ,   1457.397    
   3250.515     ,   583.1682    
   3251.709     ,   967.7764    
   3252.902     ,   750.0194    
   3254.094     ,   959.6194    
   3255.286     ,   733.4707    
   3256.478     ,   513.6246    
   3257.668     ,   1113.579    
   3258.859     ,   440.9250    
   3260.049     ,   169.2275    
   3261.239     ,   102.4734    
   3262.428     ,   407.8247    
   3263.616     ,   985.6884    
   3264.805     ,   1657.414    
   3265.992     ,   732.1539    
   3267.180     ,   1219.125    
   3268.367     ,   508.6902    
   3269.553     ,   713.4326    
   3270.739     ,   765.9499    
   3271.924     ,   632.6872    
   3273.109     ,   485.3694    
   3274.294     ,   831.1197    
   3275.478     ,   1176.868    
   3276.661     ,   1345.228    
   3277.844     ,   851.1695    
   3279.027     ,   1072.520    
   3280.209     ,   1151.970    
   3281.391     ,   1231.419    
   3282.573     ,   412.6722    
   3283.753     ,   443.7910    
   3284.934     ,   600.7119    
   3286.114     ,   1119.781    
   3287.293     ,   1141.831    
   3288.472     ,   1163.881    
   3289.650     ,   898.4214    
   3290.828     ,   984.3126    
   3292.006     ,   1070.205    
   3293.183     ,   1011.203    
   3294.360     ,   306.6919    
   3295.536     ,   45.27310    
   3296.712     ,   217.3531    
   3297.887     ,   655.3432    
   3299.062     ,   156.9420    
   3300.236     ,   511.3284    
   3301.410     ,   865.7156    
   3302.583     ,   517.3080    
   3303.756     ,   22.23584    
   3304.929     ,   42.66275    
   3306.101     ,   146.0640    
   3307.272     ,   334.8046    
   3308.444     ,   1016.109    
   3309.614     ,   1182.634    
   3310.784     ,   1370.414    
   3311.954     ,   947.4838    
   3313.124     ,   769.5938    
   3314.292     ,   1091.165    
   3315.461     ,   664.2916    
   3316.628     ,   1068.237    
   3317.796     ,   1104.844    
   3318.963     ,   766.6017    
   3320.129     ,   1196.068    
   3321.296     ,   904.5451    
   3322.461     ,   553.7420    
   3323.626     ,   872.1910    
   3324.791     ,   1426.264    
   3325.955     ,   1450.737    
   3327.119     ,   504.9988    
   3328.282     ,   1206.561    
   3329.445     ,   517.0562    
   3330.608     ,   301.5848    
   3331.770     ,   216.9998    
   3332.931     ,   500.7944    
   3334.092     ,   1105.626    
   3335.253     ,   881.7246    
   3336.413     ,   428.0920    
   3337.573     ,   1164.045    
   3338.732     ,   998.8708    
   3339.890     ,   1303.876    
   3341.049     ,   514.0436    
   3342.207     ,   222.5594    
   3343.364     ,   77.99515    
   3344.521     ,   1178.349    
   3345.677     ,   819.2057    
   3346.833     ,   320.4738    
   3347.989     ,   178.1445    
   3349.144     ,   411.1910    
   3350.299     ,   806.2857    
   3351.453     ,   1201.393    
   3352.606     ,   1007.771    
   3353.760     ,   1108.075    
   3354.913     ,   1205.023    
   3356.065     ,   462.9227    
   3357.217     ,   1148.874    
   3358.368     ,   229.1084    
   3359.519     ,   237.0578    
   3360.670     ,   1474.831    
   3361.820     ,   1299.830    
   3362.970     ,   1124.839    
   3364.119     ,   330.5536    
   3365.268     ,   159.4247    
   3366.416     ,   540.7226    
   3367.564     ,   1196.656    
   3368.711     ,   1366.105    
   3369.858     ,   1535.565    
   3371.004     ,   640.6793    
   3372.150     ,   1184.514    
   3373.296     ,   916.7032    
   3374.441     ,   909.5134    
   3375.586     ,   1206.079    
   3376.730     ,   631.5779    
   3377.874     ,   1333.593    
   3379.017     ,   743.1870    
   3380.160     ,   701.1802    
   3381.302     ,   1092.170    
   3382.444     ,   675.4600    
   3383.586     ,   1091.333    
   3384.727     ,   1300.600    
   3385.867     ,   596.0391    
   3387.007     ,   525.8647    
   3388.147     ,   1183.324    
   3389.286     ,   832.0366    
   3390.425     ,   1032.491    
   3391.563     ,   686.3621    
   3392.701     ,   340.2467    
   3393.839     ,   138.5832    
   3394.976     ,   832.5496    
   3396.112     ,   1244.646    
   3397.248     ,   1568.257    
   3398.384     ,   356.3282    
   3399.519     ,   1060.576    
   3400.654     ,   1044.962    
   3401.788     ,   1010.214    
   3402.922     ,   69.13712    
   3404.055     ,   729.8304    
   3405.188     ,   890.2919    
   3406.321     ,   1173.215    
   3407.453     ,   1456.157    
   3408.584     ,   477.1806    
   3409.715     ,   1187.770    
   3410.846     ,   412.4684    
   3411.976     ,   554.3475    
   3413.106     ,   498.0722    
   3414.235     ,   1109.521    
   3415.364     ,   1087.410    
   3416.493     ,   1061.953    
   3417.621     ,   1036.514    
   3418.748     ,   1385.224    
   3419.875     ,   1380.241    
   3421.002     ,   1375.273    
   3422.128     ,   1272.371    
   3423.254     ,   880.1194    
   3424.379     ,   1367.483    
   3425.504     ,   1381.573    
   3426.628     ,   1395.676    
   3427.752     ,   558.1180    
   3428.876     ,   367.9646    
   3429.999     ,   402.9936    
   3431.121     ,   1226.998    
   3432.244     ,   1104.438    
   3433.365     ,   899.2365    
   3434.487     ,   452.4275    
   3435.607     ,   577.2986    
   3436.728     ,   468.8130    
   3437.848     ,   697.1299    
   3438.967     ,   925.4617    
   3440.086     ,   1003.604    
   3441.205     ,   1540.076    
   3442.323     ,   1282.345    
   3443.441     ,   1207.720    
   3444.558     ,   372.8239    
   3445.675     ,   347.7827    
   3446.791     ,   345.9879    
   3447.907     ,   300.7781    
   3449.022     ,   1298.675    
   3450.137     ,   873.5222    
   3451.252     ,   631.1243    
   3452.366     ,   429.1792    
   3453.480     ,   840.6721    
   3454.593     ,   1239.643    
   3455.706     ,   1275.630    
   3456.818     ,   1090.841    
   3457.930     ,   906.0618    
   3459.042     ,   640.1553    
   3460.153     ,   796.6431    
   3461.263     ,   953.1443    
   3462.374     ,   1370.870    
   3463.483     ,   676.3129    
   3464.592     ,   379.1353    
   3465.701     ,   357.0700    
   3466.810     ,   315.9516    
   3467.917     ,   700.0555    
   3469.025     ,   812.9094    
   3470.132     ,   925.8393    
   3471.239     ,   1231.997    
   3472.345     ,   1085.003    
   3473.450     ,   938.0171    
   3474.556     ,   1071.082    
   3475.660     ,   1171.017    
   3476.765     ,   1622.456    
   3477.869     ,   975.3962    
   3478.972     ,   1208.177    
   3480.075     ,   1445.280    
   3481.178     ,   1008.554    
   3482.280     ,   1395.525    
   3483.382     ,   1450.966    
   3484.483     ,   1516.663    
   3485.584     ,   965.4161    
   3486.684     ,   1058.579    
   3487.784     ,   1336.824    
   3488.884     ,   1632.796    
   3489.983     ,   804.0613    
   3491.082     ,   173.8528    
   3492.180     ,   785.4127    
   3493.278     ,   196.8375    
   3494.375     ,   466.3740    
   3495.472     ,   1103.239    
   3496.568     ,   1313.723    
   3497.664     ,   1576.484    
   3498.760     ,   1839.251    
   3499.855     ,   499.3422    
   3500.949     ,   1810.928    
   3502.044     ,   1874.499    
   3503.137     ,   1819.451    
   3504.231     ,   1205.402    
   3505.324     ,   591.3541    
   3506.416     ,   471.5524    
   3507.508     ,   351.7525    
   3508.600     ,   430.0136    
   3509.691     ,   728.1926    
   3510.782     ,   1026.374    
   3511.872     ,   904.1486    
   3512.962     ,   826.9394    
   3514.051     ,   749.7308    
   3515.140     ,   1276.601    
   3516.229     ,   1253.539    
   3517.317     ,   1231.297    
   3518.405     ,   1616.329    
   3519.492     ,   791.8986    
   3520.579     ,   1015.668    
   3521.665     ,   834.1067    
   3522.751     ,   1158.926    
   3523.836     ,   1371.670    
   3524.921     ,   1584.413    
   3526.006     ,   1694.665    
   3527.090     ,   1009.338    
   3528.174     ,   1188.055    
   3529.257     ,   1957.145    
   3530.340     ,   1832.251    
   3531.422     ,   1707.458    
   3532.504     ,   1492.334    
   3533.586     ,   1578.421    
   3534.667     ,   104.3069    
   3535.748     ,   462.2570    
   3536.828     ,   1547.288    
   3537.907     ,   583.1313    
   3538.987     ,   1672.748    
   3540.066     ,   893.4144    
   3541.144     ,   98.42657    
   3542.222     ,   413.2038    
   3543.300     ,   1117.050    
   3544.377     ,   1780.798    
   3545.454     ,   1786.605    
   3546.530     ,   1011.475    
   3547.606     ,   1469.031    
   3548.681     ,   781.8077    
   3549.756     ,   1035.331    
   3550.831     ,   1290.450    
   3551.905     ,   1246.224    
   3552.979     ,   1344.630    
   3554.052     ,   212.9460    
   3555.125     ,   458.4185    
   3556.197     ,   1620.612    
   3557.269     ,   2014.395    
   3558.341     ,   2230.531    
   3559.412     ,   2179.799    
   3560.482     ,   2129.057    
   3561.553     ,   1584.427    
   3562.623     ,   1256.259    
   3563.692     ,   974.3472    
   3564.761     ,   519.1154    
   3565.829     ,   1071.757    
   3566.897     ,   661.7082    
   3567.965     ,   1536.982    
   3569.032     ,   1003.736    
   3570.099     ,   747.0677    
   3571.165     ,   313.6818    
   3572.231     ,   119.7147    
   3573.297     ,   327.4994    
   3574.362     ,   1674.083    
   3575.426     ,   1457.691    
   3576.490     ,   1241.288    
   3577.554     ,   1123.408    
   3578.617     ,   1718.510    
   3579.680     ,   1898.999    
   3580.743     ,   1456.525    
   3581.805     ,   1022.994    
   3582.866     ,   186.4943    
   3583.927     ,   292.4548    
   3584.988     ,   297.8860    
   3586.048     ,   303.3056    
   3587.108     ,   1096.873    
   3588.168     ,   1583.919    
   3589.227     ,   1696.813    
   3590.285     ,   1834.057    
   3591.343     ,   1807.009    
   3592.401     ,   1779.948    
   3593.458     ,   1806.395    
   3594.515     ,   894.0293    
   3595.572     ,   388.2634    
   3596.627     ,   1423.775    
   3597.683     ,   2038.129    
   3598.738     ,   1765.576    
   3599.793     ,   847.2736    
   3600.847     ,   824.0937    
   3601.901     ,   565.0097    
   3602.954     ,   305.9121    
   3604.007     ,   5.290833    
   3605.060     ,   465.0167    
   3606.112     ,   923.1173    
   3607.164     ,   2037.950    
   3608.215     ,   25.21059    
   3609.266     ,   1970.906    
   3610.316     ,   329.1130    
   3611.366     ,   1228.324    
   3612.416     ,   180.9974    
   3613.465     ,   1617.441    
   3614.513     ,   1003.462    
   3615.562     ,   1404.570    
   3616.609     ,   1788.585    
   3617.657     ,   2173.932    
   3618.704     ,   2272.469    
   3619.750     ,   1486.076    
   3620.796     ,   1152.046    
   3621.842     ,   613.3053    
   3622.887     ,   654.4124    
   3623.932     ,   938.7604    
   3624.976     ,   1223.094    
   3626.021     ,   845.2923    
   3627.064     ,   622.0870    
   3628.107     ,   1009.577    
   3629.150     ,   1397.052    
   3630.192     ,   1284.481    
   3631.234     ,   1518.436    
   3632.275     ,   1221.861    
   3633.316     ,   1503.945    
   3634.357     ,   924.5904    
   3635.397     ,   1275.772    
   3636.437     ,   1349.824    
   3637.476     ,   1120.077    
   3638.515     ,   890.3150    
   3639.553     ,   1232.351    
   3640.591     ,   1124.243    
   3641.629     ,   1016.178    
   3642.666     ,   2058.653    
   3643.703     ,   9.558319    
   3644.739     ,   208.5881    
   3645.775     ,   143.0116    
   3646.810     ,   494.5968    
   3647.845     ,   482.0631    
   3648.880     ,   1069.953    
   3649.914     ,   1718.905    
   3650.948     ,   385.7275    
   3651.981     ,   1759.447    
   3653.014     ,   543.4055    
   3654.046     ,   1314.268    
   3655.079     ,   967.7338    
   3656.110     ,   859.8474    
   3657.141     ,   760.2463    
   3658.172     ,   894.1706    
   3659.202     ,   476.9553    
   3660.232     ,   1921.059    
   3661.262     ,   2014.788    
   3662.291     ,   2108.685    
   3663.320     ,   1203.501    
   3664.348     ,   1707.901    
   3665.376     ,   1746.847    
   3666.403     ,   2014.460    
   3667.430     ,   1389.788    
   3668.457     ,   1960.132    
   3669.483     ,   714.2343    
   3670.509     ,   481.3534    
   3671.534     ,   1171.415    
   3672.559     ,   1571.266    
   3673.583     ,   1971.098    
   3674.607     ,   1794.956    
   3675.631     ,   1501.946    
   3676.654     ,   1209.902    
   3677.677     ,   1014.855    
   3678.699     ,   973.6775    
   3679.721     ,   918.1620    
   3680.742     ,   1419.401    
   3681.763     ,   211.3886    
   3682.784     ,   1570.655    
   3683.804     ,   325.4956    
   3684.824     ,   1763.358    
   3685.843     ,   1066.322    
   3686.862     ,   1569.863    
   3687.881     ,   1602.173    
   3688.899     ,   1620.638    
   3689.917     ,   1639.091    
   3690.934     ,   1590.187    
   3691.951     ,   1668.538    
   3692.967     ,   722.5190    
   3693.983     ,   792.1763    
   3694.999     ,   861.8220    
   3696.014     ,   1041.480    
   3697.029     ,   934.7177    
   3698.043     ,   836.5781    
   3699.057     ,   1031.648    
   3700.070     ,   1328.613    
   3701.083     ,   1467.714    
   3702.096     ,   1641.005    
   3703.108     ,   961.3912    
   3704.120     ,   281.7679    
   3705.131     ,   108.2112    
   3706.142     ,   1289.875    
   3707.153     ,   1366.451    
   3708.163     ,   1169.844    
   3709.173     ,   493.2695    
   3710.182     ,   920.0474    
   3711.191     ,   1494.681    
   3712.199     ,   2069.306    
   3713.207     ,   1859.418    
   3714.215     ,   663.6241    
   3715.222     ,   1199.812    
   3716.229     ,   2627.447    
   3717.235     ,   2660.365    
   3718.241     ,   2023.297    
   3719.247     ,   1986.676    
   3720.252     ,   1950.050    
   3721.257     ,   2166.868    
   3722.261     ,   1693.744    
   3723.265     ,   1220.614    
   3724.268     ,   1174.698    
   3725.271     ,   67.16922    
   3726.274     ,   310.4664    
   3727.276     ,   286.1341    
   3728.278     ,   260.7060    
   3729.279     ,   877.6089    
   3730.280     ,   1771.551    
   3731.281     ,   1950.433    
   3732.281     ,   1895.748    
   3733.280     ,   1817.653    
   3734.280     ,   2152.554    
   3735.279     ,   2487.454    
   3736.277     ,   2026.051    
   3737.275     ,   952.2883    
   3738.272     ,   1296.339    
   3739.270     ,   7.437378    
   3740.266     ,   263.9584    
   3741.263     ,   382.1373    
   3742.259     ,   500.3631    
   3743.254     ,   921.0402    
   3744.250     ,   1068.869    
   3745.244     ,   479.4100    
   3746.238     ,   611.1771    
   3747.232     ,   1038.995    
   3748.226     ,   1466.815    
   3749.219     ,   851.1278    
   3750.211     ,   719.8443    
   3751.204     ,   1758.832    
   3752.195     ,   1058.053    
   3753.187     ,   2426.901    
   3754.178     ,   1709.351    
   3755.168     ,   273.9630    
   3756.158     ,   276.5894    
   3757.148     ,   799.7749    
   3758.137     ,   1322.964    
   3759.126     ,   1350.180    
   3760.115     ,   1159.747    
   3761.103     ,   1297.501    
   3762.090     ,   1443.372    
   3763.078     ,   1643.136    
   3764.064     ,   1454.634    
   3765.051     ,   799.9127    
   3766.037     ,   925.0374    
   3767.022     ,   1082.056    
   3768.008     ,   1245.687    
   3768.992     ,   669.9487    
   3769.977     ,   1423.672    
   3770.961     ,   2365.759    
   3771.944     ,   2232.857    
   3772.927     ,   2238.870    
   3773.910     ,   209.3253    
   3774.892     ,   88.02606    
   3775.874     ,   220.3659    
   3776.855     ,   352.8286    
   3777.837     ,   455.8640    
   3778.817     ,   1611.399    
   3779.797     ,   2010.727    
   3780.777     ,   1450.209    
   3781.757     ,   1095.870    
   3782.736     ,   2127.963    
   3783.714     ,   1910.388    
   3784.692     ,   1692.820    
   3785.670     ,   1461.786    
   3786.647     ,   2560.369    
   3787.624     ,   1567.789    
   3788.601     ,   25.59351    
   3789.577     ,   1829.202    
   3790.553     ,   356.0897    
   3791.528     ,   2373.411    
   3792.503     ,   1476.511    
   3793.477     ,   564.4919    
   3794.451     ,   1443.581    
   3795.425     ,   868.9215    
   3796.398     ,   294.2790    
   3797.371     ,   270.0777    
   3798.343     ,   970.6398    
   3799.315     ,   1671.287    
   3800.287     ,   1206.350    
   3801.258     ,   2251.699    
   3802.229     ,   2050.094    
   3803.199     ,   1848.504    
   3804.169     ,   652.5870    
   3805.139     ,   1414.089    
   3806.108     ,   314.6174    
   3807.077     ,   134.5883    
   3808.045     ,   762.4189    
   3809.013     ,   1390.265    
   3809.980     ,   1757.593    
   3810.947     ,   2257.553    
   3811.914     ,   351.9547    
   3812.880     ,   2102.822    
   3813.846     ,   115.5364    
   3814.812     ,   712.7081    
   3815.777     ,   1452.207    
   3816.741     ,   803.6747    
   3817.706     ,   1594.154    
   3818.669     ,   744.4864    
   3819.633     ,   806.2167    
   3820.596     ,   408.3222    
   3821.558     ,   457.6216    
   3822.521     ,   537.2409    
   3823.482     ,   294.0737    
   3824.444     ,   94.95331    
   3825.405     ,   1003.493    
   3826.365     ,   2090.816    
   3827.325     ,   1902.374    
   3828.285     ,   1713.970    
   3829.244     ,   835.5275    
   3830.203     ,   1075.618    
   3831.162     ,   1315.725    
   3832.120     ,   800.7048    
   3833.078     ,   423.7345    
   3834.035     ,   2322.127    
   3834.992     ,   665.0562    
   3835.948     ,   2361.306    
   3836.904     ,   1910.324    
   3837.860     ,   2104.545    
   3838.815     ,   2298.782    
   3839.770     ,   2077.698    
   3840.724     ,   1676.547    
   3841.678     ,   1275.415    
   3842.632     ,   1814.355    
   3843.585     ,   1822.558    
   3844.538     ,   1714.792    
   3845.491     ,   1799.226    
   3846.443     ,   1861.099    
   3847.394     ,   1435.747    
   3848.345     ,   1968.493    
   3849.296     ,   1199.498    
   3850.247     ,   631.8994    
   3851.197     ,   1129.863    
   3852.146     ,   1627.844    
   3853.095     ,   1887.376    
   3854.044     ,   879.8163    
   3854.992     ,   307.9658    
   3855.940     ,   1811.570    
   3856.888     ,   2243.418    
   3857.835     ,   2171.086    
   3858.782     ,   1693.383    
   3859.728     ,   408.3669    
   3860.674     ,   499.7240    
   3861.620     ,   323.7053    
   3862.565     ,   147.7054    
   3863.510     ,   1548.857    
   3864.454     ,   394.3650    
   3865.398     ,   63.64612    
   3866.341     ,   96.33270    
   3867.284     ,   796.3923    
   3868.227     ,   957.9632    
   3869.169     ,   592.1914    
   3870.111     ,   226.4375    
   3871.053     ,   541.6511    
   3871.994     ,   1779.597    
   3872.935     ,   1164.831    
   3873.875     ,   1992.001    
   3874.815     ,   869.5684    
   3875.754     ,   73.15143    
   3876.693     ,   202.1992    
   3877.632     ,   44.25037    
   3878.570     ,   291.2273    
   3879.508     ,   1124.898    
   3880.446     ,   394.6005    
   3881.383     ,   74.48517    
   3882.319     ,   105.9441    
   3883.256     ,   1621.413    
   3884.191     ,   128.5353    
   3885.127     ,   301.8996    
   3886.062     ,   475.2794    
   3886.997     ,   1742.026    
   3887.931     ,   1175.883    
   3888.865     ,   729.4561    
   3889.798     ,   290.6637    
   3890.731     ,   143.5103    
   3891.664     ,   417.6189    
   3892.596     ,   76.90643    
   3893.528     ,   634.4326    
   3894.459     ,   941.1505    
   3895.391     ,   1247.878    
   3896.321     ,   1269.961    
   3897.251     ,   1141.540    
   3898.181     ,   1037.676    
   3899.111     ,   2492.485    
   3900.040     ,   2500.645    
   3900.968     ,   2499.907    
   3901.896     ,   1770.569    
   3902.824     ,   2084.546    
   3903.752     ,   2398.534    
   3904.679     ,   1541.834    
   3905.605     ,   2195.755    
   3906.532     ,   1566.153    
   3907.458     ,   346.7716    
   3908.383     ,   933.8234    
   3909.308     ,   1508.509    
   3910.233     ,   2082.776    
   3911.157     ,   1793.616    
   3912.081     ,   1131.001    
   3913.004     ,   467.0681    
   3913.927     ,   991.9099    
   3914.850     ,   977.6212    
   3915.772     ,   963.3412    
   3916.694     ,   2000.130    
   3917.615     ,   2043.376    
   3918.537     ,   999.3574    
   3919.457     ,   1672.060    
   3920.377     ,   478.3446    
   3921.297     ,   669.5983    
   3922.217     ,   335.8897    
   3923.136     ,   1475.852    
   3924.054     ,   2128.423    
   3924.973     ,   1133.397    
   3925.891     ,   1509.039    
   3926.808     ,   1530.566    
   3927.725     ,   1552.109    
   3928.642     ,   967.4440    
   3929.558     ,   1243.732    
   3930.474     ,   1280.828    
   3931.389     ,   1317.939    
   3932.304     ,   1734.718    
   3933.219     ,   655.6510    
   3934.133     ,   501.9318    
   3935.047     ,   159.3212    
   3935.961     ,   1396.185    
   3936.874     ,   1003.332    
   3937.787     ,   1426.518    
   3938.699     ,   1849.937    
   3939.611     ,   1035.272    
   3940.522     ,   694.1892    
   3941.433     ,   597.6533    
   3942.344     ,   501.1254    
   3943.254     ,   850.2621    
   3944.164     ,   1124.587    
   3945.074     ,   1464.991    
   3945.983     ,   1805.404    
   3946.892     ,   1379.778    
   3947.800     ,   511.7802    
   3948.708     ,   1232.435    
   3949.615     ,   1952.936    
   3950.522     ,   1696.178    
   3951.429     ,   1007.133    
   3952.336     ,   2180.922    
   3953.242     ,   1651.193    
   3954.147     ,   225.2532    
   3955.052     ,   420.6772    
   3955.957     ,   719.4724    
   3956.862     ,   70.87215    
   3957.765     ,   1708.350    
   3958.669     ,   1846.294    
   3959.572     ,   1587.762    
   3960.475     ,   1329.238    
   3961.377     ,   1514.396    
   3962.280     ,   383.8758    
   3963.181     ,   577.1729    
   3964.082     ,   361.3306    
   3964.983     ,   161.3931    
   3965.884     ,   1868.375    
   3966.783     ,   897.2921    
   3967.683     ,   780.2955    
   3968.583     ,   2092.388    
   3969.481     ,   2068.750    
   3970.380     ,   2449.068    
   3971.278     ,   2829.781    
   3972.176     ,   2106.951    
   3973.073     ,   1843.494    
   3973.970     ,   1830.228    
   3974.866     ,   2692.599    
   3975.762     ,   2384.812    
   3976.658     ,   2077.077    
   3977.553     ,   13.60098    
   3978.448     ,   1130.570    
   3979.343     ,   1244.152    
   3980.237     ,   1357.778    
   3981.131     ,   426.9557    
   3982.024     ,   2207.112    
   3982.917     ,   870.0610    
   3983.809     ,   1255.716    
   3984.701     ,   1641.710    
   3985.593     ,   768.2520    
   3986.485     ,   476.0469    
   3987.376     ,   36.55356    
   3988.266     ,   478.7033    
   3989.156     ,   1268.973    
   3990.046     ,   1576.814    
   3990.936     ,   1884.742    
   3991.825     ,   1687.062    
   3992.713     ,   1816.147    
   3993.602     ,   1945.287    
   3994.490     ,   2192.183    
   3995.377     ,   838.5466    
   3996.264     ,   638.3272    
   3997.151     ,   581.1401    
   3998.037     ,   2392.928    
   3998.923     ,   3000.812    
   3999.808     ,   2128.220    
   4000.693     ,   1255.689    
   4001.578     ,   604.5071    
   4002.462     ,   390.8307    
   4003.346     ,   291.3637    
   4004.230     ,   1713.190    
   4005.113     ,   1613.638    
   4005.996     ,   814.0811    
   4006.878     ,   14.69214    
   4007.760     ,   164.8435    
   4008.642     ,   1620.369    
   4009.523     ,   1963.012    
   4010.404     ,   909.9833    
   4011.284     ,   2077.537    
   4012.164     ,   1381.446    
   4013.044     ,   546.3928    
   4013.923     ,   123.0872    
   4014.802     ,   226.4064    
   4015.680     ,   220.4069    
   4016.559     ,   31.23532    
   4017.436     ,   1132.188    
   4018.314     ,   1835.254    
   4019.190     ,   20.23196    
   4020.067     ,   135.9633    
   4020.943     ,   1790.766    
   4021.819     ,   1237.327    
   4022.694     ,   194.7515    
   4023.569     ,   25.14360    
   4024.444     ,   90.99530    
   4025.318     ,   1484.707    
   4026.192     ,   866.1793    
   4027.065     ,   1957.652    
   4027.938     ,   1161.852    
   4028.811     ,   1675.703    
   4029.683     ,   1799.756    
   4030.555     ,   53.47388    
   4031.427     ,   822.5659    
   4032.298     ,   1497.671    
   4033.168     ,   2165.455    
   4034.039     ,   2270.063    
   4034.908     ,   2128.788    
   4035.778     ,   2998.128    
   4036.647     ,   2793.211    
   4037.516     ,   2590.570    
   4038.384     ,   1755.635    
   4039.252     ,   1572.294    
   4040.120     ,   1417.864    
   4040.987     ,   1442.320    
   4041.854     ,   2598.820    
   4042.720     ,   2708.624    
   4043.586     ,   2663.348    
   4044.452     ,   739.4821    
   4045.317     ,   6.075890    
   4046.182     ,  0.0000000E+00
