139.2034, 451.0526
141.1319, 465.0545
143.0603, 481.7229
144.9888, 501.1733
146.9173, 524.2186
148.8457, 550.8228
150.7742, 575.2531
152.7027, 597.4413
154.6311, 616.6256
156.5596, 632.2280
158.4881, 644.7198
160.4165, 653.8539
162.3450, 659.9913
164.2735, 667.4140
166.2019, 675.8856
168.1304, 686.4810
170.0589, 699.2082
171.9873, 714.3767
173.9158, 733.0631
175.8443, 754.4555
177.7727, 774.8831
179.7012, 795.6885
181.6297, 813.1291
183.5581, 827.4841
185.4866, 837.9103
187.4151, 846.1870
189.3435, 849.6305
191.2720, 842.5570
193.2005, 824.1404
195.1289, 794.8041
197.0574, 751.7457
198.9859, 703.1163
200.9143, 647.1129
202.8428, 590.7690
204.7713, 540.1801
206.6997, 495.4794
208.6282, 457.4091
210.5567, 425.4478
212.4851, 400.2725
214.4136, 384.5834
216.3421, 373.4738
218.2705, 364.0056
220.1990, 356.4655
222.1275, 352.0777
224.0559, 350.8895
225.9844, 351.4962
227.9129, 354.3505
229.8413, 357.9607
231.7698, 361.0623
233.6983, 364.8307
235.6267, 370.2673
237.5552, 377.6270
239.4837, 388.6941
241.4121, 403.6169
243.3406, 421.8767
245.2691, 442.8311
247.1975, 467.6684
249.1260, 498.2424
251.0545, 533.2759
252.9829, 569.6613
254.9114, 607.4539
256.8399, 644.3597
258.7683, 680.0765
260.6968, 714.5186
262.6253, 748.7814
264.5537, 781.0151
266.4822, 807.2845
268.4107, 829.6940
270.3391, 855.1248
272.2676, 882.9826
274.1961, 917.9916
276.1245, 962.8444
278.0530, 1012.719
279.9815, 1066.452
281.9099, 1123.652
283.8384, 1185.012
285.7669, 1249.752
287.6953, 1312.822
289.6238, 1379.669
291.5523, 1431.959
293.4807, 1471.361
295.4092, 1491.700
297.3377, 1490.474
299.2661, 1465.828
301.1946, 1414.736
303.1231, 1336.228
305.0515, 1245.656
306.9800, 1133.890
308.9085, 1025.204
310.8369, 918.4478
312.7654, 819.7230
314.6939, 733.2699
316.6223, 657.9107
318.5508, 593.1727
320.4793, 539.4569
322.4077, 495.7024
324.3362, 464.6323
326.2647, 437.9799
328.1931, 414.9221
330.1216, 395.4874
332.0501, 380.0484
333.9785, 367.8562
335.9070, 357.6671
337.8355, 349.7416
339.7639, 342.4073
341.6924, 335.9579
343.6209, 329.3346
345.5493, 321.7822
347.4778, 314.7302
349.4063, 308.7289
351.3347, 303.6771
353.2632, 299.8246
355.1917, 297.3324
357.1201, 293.7787
359.0486, 288.6255
360.9771, 284.4206
362.9055, 282.8246
364.8340, 280.7767
366.7625, 275.8986
368.6909, 270.2202
370.6194, 266.7703
372.5479, 265.5123
374.4763, 264.1157
376.4048, 262.6796
378.3333, 260.4268
380.2617, 256.4388
382.1902, 252.8894
384.1187, 251.0705
386.0471, 249.6325
387.9756, 247.1056
389.9041, 244.0116
391.8326, 241.9058
393.7610, 240.7837
395.6895, 239.7622
397.6180, 238.7214
399.5464, 237.6700
401.4749, 236.9063
403.4034, 235.9437
405.3318, 233.9546
407.2603, 231.7508
409.1888, 230.8084
411.1172, 230.9170
413.0457, 231.4308
414.9742, 232.5824
416.9026, 233.1258
418.8311, 232.3035
420.7596, 231.4517
422.6880, 230.9238
424.6165, 230.7955
426.5450, 230.9002
428.4734, 231.2537
430.4019, 232.3598
432.3304, 234.3138
434.2588, 236.0651
436.1873, 237.2836
438.1158, 238.6113
440.0442, 240.5146
441.9727, 242.0361
443.9012, 241.8922
445.8296, 241.8458
447.7581, 244.1222
449.6866, 248.0413
451.6150, 250.8879
453.5435, 252.0067
455.4720, 254.1904
457.4004, 258.7181
459.3289, 262.4459
461.2574, 263.8250
463.1858, 265.5209
465.1143, 269.4437
467.0428, 274.0775
468.9712, 277.6118
470.8997, 280.3545
472.8282, 284.1430
474.7566, 289.5531
476.6851, 293.7167
478.6136, 296.5085
480.5420, 298.6162
482.4705, 299.3098
484.3990, 300.4997
486.3274, 303.9682
488.2559, 307.9243
490.1844, 310.8641
492.1128, 312.7597
494.0413, 313.1334
495.9698, 311.5586
497.8982, 311.3340
499.8267, 312.9820
501.7552, 314.1049
503.6836, 313.9662
505.6121, 313.6066
507.5406, 313.9928
509.4690, 313.8322
511.3975, 311.6784
513.3260, 308.2960
515.2545, 305.8714
517.1829, 304.4270
519.1114, 301.7596
521.0399, 297.7836
522.9683, 293.0609
524.8968, 287.0551
526.8253, 281.6812
528.7537, 278.5056
530.6822, 275.1359
532.6107, 270.1267
534.5391, 264.4158
536.4676, 258.9962
538.3961, 253.8356
540.3245, 248.4467
542.2530, 242.8384
544.1815, 237.7354
546.1099, 233.3022
548.0384, 229.0260
549.9669, 224.9826
551.8953, 220.8488
553.8238, 216.4967
555.7523, 212.0560
557.6807, 207.8650
559.6092, 203.6079
561.5377, 198.0871
563.4661, 191.9709
565.3946, 187.4973
567.3231, 184.7987
569.2515, 181.9668
571.1800, 178.5417
573.1085, 175.5639
575.0369, 173.8021
576.9654, 171.5999
578.8939, 167.8119
580.8223, 164.1138
582.7508, 161.9689
584.6793, 160.3242
586.6077, 157.9084
588.5362, 155.0139
590.4647, 152.3554
592.3931, 149.9811
594.3216, 148.1742
596.2501, 147.3681
598.1785, 145.9609
600.1070, 143.4134
602.0355, 141.3714
603.9639, 140.5798
605.8924, 139.7576
607.8209, 138.3828
609.7493, 136.5173
611.6778, 133.7091
613.6063, 130.9368
615.5347, 129.9293
617.4632, 130.1754
619.3917, 129.2711
621.3201, 127.0534
623.2486, 125.3628
625.1771, 124.1710
627.1055, 123.4848
629.0340, 123.6473
630.9625, 123.4403
632.8909, 122.0499
634.8194, 120.8708
636.7479, 121.0940
638.6763, 121.3175
640.6048, 120.1926
642.5333, 118.6298
644.4617, 118.0752
646.3902, 118.0626
648.3187, 117.2287
650.2471, 115.7108
652.1756, 114.6310
654.1041, 114.0520
656.0325, 114.2651
657.9610, 115.5433
659.8895, 116.3921
661.8179, 116.1939
663.7464, 116.1285
665.6749, 116.6859
667.6033, 117.1152
669.5318, 117.0302
671.4603, 116.7206
673.3887, 116.0869
675.3172, 115.5793
677.2457, 116.1322
679.1741, 117.5694
681.1026, 119.5328
683.0311, 121.9199
684.9595, 123.8358
686.8880, 124.9505
688.8165, 127.6865
690.7449, 132.8616
692.6734, 138.5037
694.6019, 144.9718
696.5303, 151.0486
698.4588, 155.8875
700.3873, 160.3757
702.3157, 165.1182
704.2442, 169.9151
706.1727, 174.7542
708.1011, 179.7483
710.0296, 184.2327
711.9581, 188.7900
713.8865, 195.5033
715.8150, 204.1080
717.7435, 211.0714
719.6719, 215.9124
721.6004, 221.2588
723.5289, 228.2101
725.4573, 233.5817
727.3858, 236.7867
729.3143, 239.3524
731.2427, 242.1176
733.1712, 243.2146
735.0997, 242.4156
737.0281, 239.2552
738.9566, 232.4550
740.8851, 224.0576
742.8135, 215.3403
744.7420, 206.4060
746.6705, 197.8198
748.5989, 188.9248
750.5274, 177.8196
752.4559, 165.3507
754.3843, 155.1928
756.3128, 147.3114
758.2413, 140.6211
760.1697, 135.3339
762.0982, 129.6994
764.0267, 123.2274
765.9551, 117.9054
767.8836, 114.4156
769.8121, 111.3605
771.7405, 108.1936
773.6690, 105.4755
775.5975, 103.6271
777.5259, 102.1084
779.4544, 100.6024
781.3829, 99.38234
783.3113, 98.96330
785.2398, 98.54730
787.1683, 96.93187
789.0967, 95.11995
791.0252, 94.85527
792.9537, 95.63168
794.8821, 96.08076
796.8106, 95.96149
798.7391, 95.19347
800.6675, 94.06779
802.5960, 93.33492
804.5245, 92.92158
806.4529, 92.66621
808.3814, 92.61108
810.3099, 93.06645
812.2383, 94.36330
814.1668, 94.73669
816.0953, 93.60878
818.0237, 92.31252
819.9522, 90.22659
821.8807, 89.34187
823.8091, 91.08655
825.7376, 92.59217
827.6661, 92.44943
829.5945, 92.24140
831.5230, 93.04684
833.4515, 93.85950
835.3799, 93.95768
837.3084, 93.82979
839.2369, 93.59361
841.1653, 93.38539
843.0938, 93.62201
845.0223, 94.07545
846.9507, 94.37408
848.8792, 94.51199
850.8077, 94.35897
852.7361, 94.03412
854.6646, 94.13976
856.5931, 94.67429
858.5215, 95.56086
860.4500, 96.85564
862.3785, 97.07283
864.3069, 96.00381
866.2354, 95.15407
868.1639, 94.51440
870.0923, 93.87883
872.0208, 93.31596
873.9493, 92.96260
875.8777, 92.89681
877.8062, 92.09227
879.7347, 90.34581
881.6631, 88.35973
883.5916, 85.94576
885.5201, 84.25858
887.4485, 83.87301
889.3770, 83.70111
891.3055, 83.61659
893.2339, 83.31618
895.1624, 82.18239
897.0909, 81.38008
899.0193, 81.72192
900.9478, 82.08804
902.8763, 82.09840
904.8047, 81.88343
906.7332, 80.94473
908.6617, 79.81242
910.5901, 79.42426
912.5186, 79.51973
914.4471, 79.63672
916.3755, 79.59526
918.3040, 79.12358
920.2325, 78.49831
922.1609, 78.27071
924.0894, 78.28084
926.0179, 78.03634
927.9464, 77.70421
929.8748, 78.04810
931.8033, 78.85497
933.7318, 79.16360
935.6602, 78.94540
937.5887, 78.22540
939.5172, 77.24997
941.4456, 77.41942
943.3741, 78.63371
945.3026, 79.09554
947.2310, 78.67070
949.1595, 78.15427
951.0880, 77.63700
953.0164, 77.64938
954.9449, 78.27232
956.8734, 78.90299
958.8018, 79.48778
960.7303, 80.01015
962.6588, 80.57756
964.5872, 80.86597
966.5157, 80.77504
968.4442, 80.47695
970.3726, 79.68523
972.3011, 79.53656
974.2296, 80.45436
976.1580, 81.03024
978.0865, 81.02775
980.0150, 81.02107
981.9434, 80.91248
983.8719, 81.27879
985.8004, 82.41888
987.7288, 83.29254
989.6573, 83.64729
991.5858, 84.07863
993.5142, 84.53938
995.4427, 85.49742
997.3712, 87.36621
999.2996, 89.01277
1001.228, 90.09467
1003.157, 90.87196
1005.085, 90.95335
1007.013, 92.01385
1008.942, 94.92756
1010.870, 97.91816
1012.799, 100.4440
1014.727, 102.9584
1016.656, 105.3024
1018.584, 108.5493
1020.513, 113.0730
1022.441, 118.1830
1024.370, 123.6107
1026.298, 129.9525
1028.227, 137.0797
1030.155, 145.5429
1032.084, 155.4240
1034.012, 167.3686
1035.941, 181.1566
1037.869, 197.1108
1039.797, 213.5956
1041.726, 235.9523
1043.654, 262.8013
1045.583, 300.6734
1047.511, 346.2430
1049.440, 411.7145
1051.368, 501.3228
1053.297, 607.9645
1055.225, 745.0356
1057.154, 873.3163
1059.082, 993.0497
1061.011, 1087.659
1062.939, 1142.863
1064.868, 1192.893
1066.796, 1230.475
1068.724, 1288.845
1070.653, 1370.503
1072.581, 1479.465
1074.510, 1633.398
1076.438, 1783.569
1078.367, 1940.285
1080.295, 2059.667
1082.224, 2137.104
1084.152, 2170.152
1086.081, 2155.545
1088.009, 2108.925
1089.938, 2033.727
1091.866, 1914.508
1093.795, 1738.978
1095.723, 1548.218
1097.651, 1337.178
1099.580, 1142.832
1101.508, 969.8273
1103.437, 812.0217
1105.365, 668.0687
1107.294, 542.4168
1109.222, 435.7628
1111.151, 349.5943
1113.079, 285.1339
1115.008, 234.3507
1116.936, 197.0707
1118.865, 169.0733
1120.793, 151.0088
1122.722, 137.5581
1124.650, 128.0055
1126.578, 118.7511
1128.507, 110.4125
1130.435, 105.3081
1132.364, 102.7476
1134.292, 100.1185
1136.221, 97.61188
1138.149, 95.08525
1140.078, 92.77492
1142.006, 91.97708
1143.935, 91.77254
1145.863, 90.19840
1147.792, 88.26800
1149.720, 87.18301
1151.649, 86.57152
1153.577, 86.17763
1155.505, 86.12583
1157.434, 86.71053
1159.362, 87.21749
1161.291, 87.05575
1163.219, 86.75275
1165.148, 86.48360
1167.076, 86.12425
1169.005, 85.76781
1170.933, 85.50124
1172.862, 84.85193
1174.790, 84.53098
1176.719, 85.60284
1178.647, 86.52041
1180.576, 86.34694
1182.504, 86.30205
1184.432, 86.86583
1186.361, 86.91231
1188.289, 86.13150
1190.218, 85.91416
1192.146, 86.51615
1194.075, 86.59225
1196.003, 85.87492
1197.932, 85.72176
1199.860, 86.32925
1201.789, 86.62931
1203.717, 86.44764
1205.646, 86.19215
1207.574, 86.00411
1209.503, 86.71191
1211.431, 88.05643
1213.359, 87.77747
1215.288, 86.46968
1217.216, 86.40847
1219.145, 86.93031
1221.073, 86.61460
1223.002, 86.07909
1224.930, 86.56552
1226.859, 87.36813
1228.787, 87.43929
1230.716, 87.19765
1232.644, 86.94177
1234.573, 86.87742
1236.501, 87.11745
1238.430, 87.34346
1240.358, 87.60268
1242.286, 87.95994
1244.215, 88.42916
1246.143, 88.28534
1248.072, 87.39621
1250.000, 86.84819
1251.929, 86.61539
1253.857, 86.52489
1255.786, 86.54855
1257.714, 86.79652
1259.643, 87.44440
1261.571, 87.63124
1263.500, 87.23988
1265.428, 86.54953
1267.357, 85.93819
1269.285, 86.74905
1271.214, 88.05708
1273.142, 87.95728
1275.070, 87.25952
1276.999, 86.94881
1278.927, 86.68767
1280.856, 86.45799
1282.784, 86.53480
1284.713, 86.40044
1286.641, 86.32503
1288.570, 87.26734
1290.498, 87.68157
1292.427, 86.52394
1294.355, 85.79498
1296.284, 86.28987
1298.212, 86.45004
1300.141, 85.83887
1302.069, 85.63551
1303.997, 85.95335
1305.926, 85.79718
1307.854, 85.26347
1309.783, 84.65389
1311.711, 83.92375
1313.640, 83.84386
1315.568, 84.16882
1317.497, 83.52007
1319.425, 82.51525
1321.354, 82.65170
1323.282, 83.10984
1325.211, 83.14481
1327.139, 82.64084
1329.068, 80.89197
1330.996, 79.67403
1332.924, 80.38008
1334.853, 81.04235
1336.781, 80.93349
1338.710, 80.30873
1340.638, 79.29718
1342.567, 78.60078
1344.495, 78.07217
1346.424, 77.39639
1348.352, 76.70612
1350.281, 76.20294
1352.209, 75.86003
1354.138, 75.78091
1356.066, 75.67982
1357.995, 75.06842
1359.923, 74.37843
1361.851, 74.15542
1363.780, 74.03249
1365.708, 73.37428
1367.637, 72.67191
1369.565, 72.49165
1371.494, 72.61303
1373.422, 72.61726
1375.351, 72.64847
1377.279, 72.98457
1379.208, 73.10497
1381.136, 72.82996
1383.065, 72.43793
1384.993, 72.16367
1386.922, 72.39548
1388.850, 72.88815
1390.778, 72.93256
1392.707, 72.65413
1394.635, 72.82997
1396.564, 73.53624
1398.492, 74.24146
1400.421, 74.86230
1402.349, 75.55458
1404.278, 75.21516
1406.206, 74.23351
1408.135, 74.81553
1410.063, 76.22178
1411.992, 76.92583
1413.920, 77.48368
1415.849, 78.54750
1417.777, 79.74776
1419.705, 80.66135
1421.634, 81.46275
1423.562, 82.50841
1425.491, 82.98329
1427.419, 82.64394
1429.348, 82.62031
1431.276, 82.97401
1433.205, 83.29514
1435.133, 83.57502
1437.062, 83.33420
1438.990, 82.94273
1440.919, 83.51128
1442.847, 84.25658
1444.776, 84.30975
1446.704, 84.21950
1448.632, 84.51135
1450.561, 84.02824
1452.489, 82.20288
1454.418, 80.86906
1456.346, 80.52752
1458.275, 80.20420
1460.203, 79.43942
1462.132, 79.14738
1464.060, 79.32948
1465.989, 78.33004
1467.917, 76.98775
1469.846, 76.67528
1471.774, 76.32507
1473.703, 75.62435
1475.631, 75.09206
1477.559, 74.13393
1479.488, 73.03438
1481.416, 72.32973
1483.345, 71.83015
1485.273, 71.23493
1487.202, 70.65853
1489.130, 70.16128
1491.059, 69.37631
1492.987, 68.39379
1494.916, 67.70687
1496.844, 67.34816
1498.773, 67.12013
1500.701, 66.82471
1502.630, 66.19026
1504.558, 65.86983
1506.486, 65.97778
1508.415, 65.82251
1510.343, 65.40781
1512.272, 65.03191
1514.200, 64.74883
1516.129, 64.72011
1518.057, 64.53704
1519.986, 63.48321
1521.914, 62.57074
1523.843, 62.39715
1525.771, 62.73436
1527.700, 63.22598
1529.628, 62.90559
1531.557, 62.38608
1533.485, 61.94747
1535.413, 61.24456
1537.342, 60.23888
1539.270, 59.48016
1541.199, 59.32996
1543.127, 59.63378
1545.056, 60.00179
1546.984, 59.77704
1548.913, 59.55166
1550.841, 59.23458
1552.770, 58.55616
1554.698, 57.79061
1556.627, 56.88085
1558.555, 56.47202
1560.484, 56.32418
1562.412, 55.41431
1564.340, 54.81279
1566.269, 55.03527
1568.197, 54.70527
1570.126, 54.10725
1572.054, 54.12026
1573.983, 54.06010
1575.911, 53.25045
1577.840, 52.65015
1579.768, 52.84064
1581.697, 52.63485
1583.625, 51.73034
1585.554, 51.41387
1587.482, 51.41972
1589.411, 51.02299
1591.339, 50.83987
1593.267, 50.66961
1595.196, 50.21563
1597.124, 50.22668
1599.053, 50.18969
1600.981, 49.39883
1602.910, 48.63568
1604.838, 48.51081
1606.767, 48.47440
1608.695, 48.23330
1610.624, 47.86005
1612.552, 47.45564
1614.481, 46.87263
1616.409, 46.37885
1618.338, 46.36341
1620.266, 46.32684
1622.194, 46.07616
1624.123, 45.86481
1626.051, 45.75479
1627.980, 45.29137
1629.908, 44.51040
1631.837, 44.13418
1633.765, 44.22413
1635.694, 44.59750
1637.622, 44.41087
1639.551, 43.73452
1641.479, 43.70587
1643.408, 43.81915
1645.336, 43.32768
1647.265, 42.83872
1649.193, 42.70787
1651.121, 42.59962
1653.050, 42.56660
1654.978, 42.44926
1656.907, 42.10070
1658.835, 41.93314
1660.764, 42.15479
1662.692, 42.03647
1664.621, 41.32668
1666.549, 41.07693
1668.478, 41.02885
1670.406, 40.45229
1672.335, 40.35628
1674.263, 40.70995
1676.192, 40.86837
1678.120, 41.15008
1680.048, 40.69019
1681.977, 39.93541
1683.905, 40.39615
1685.834, 41.11065
1687.762, 41.04453
1689.691, 40.72492
1691.619, 40.80651
1693.548, 41.45655
1695.476, 42.24207
1697.405, 43.26934
1699.333, 44.27808
1701.262, 45.15881
1703.190, 46.48330
1705.119, 48.34901
1707.047, 50.29418
1708.975, 51.93005
1710.904, 54.10038
1712.832, 56.80862
1714.761, 58.51267
1716.689, 60.13422
1718.618, 62.44904
1720.546, 64.59819
1722.475, 66.20605
1724.403, 67.91533
1726.332, 69.93394
1728.260, 70.82039
1730.189, 70.26448
1732.117, 69.27898
1734.046, 68.35027
1735.974, 67.03279
1737.902, 64.81577
1739.831, 61.68762
1741.759, 58.65861
1743.688, 55.75796
1745.616, 52.64752
1747.545, 50.19003
1749.473, 48.21144
1751.402, 45.93379
1753.330, 44.07240
1755.259, 42.79659
1757.187, 41.23854
1759.116, 39.67271
1761.044, 38.23363
1762.973, 36.79800
1764.901, 36.12215
1766.829, 35.77041
1768.758, 35.20061
1770.686, 34.65182
1772.615, 33.60289
1774.543, 32.88451
1776.472, 33.02785
1778.400, 32.83398
1780.329, 32.38114
1782.257, 32.28811
1784.186, 32.32680
1786.114, 32.08592
1788.043, 32.25196
1789.971, 32.74041
1791.900, 32.29575
1793.828, 31.42992
1795.756, 31.49663
1797.685, 31.89838
1799.613, 32.00200
1801.542, 31.82485
1803.470, 31.13369
1805.399, 30.78260
1807.327, 30.94148
1809.256, 30.71392
1811.184, 30.44164
1813.113, 30.63981
1815.041, 30.81456
1816.970, 30.67855
1818.898, 30.42477
1820.827, 30.38461
1822.755, 30.22264
1824.683, 30.04925
1826.612, 30.14502
1828.540, 29.94578
1830.469, 29.44730
1832.397, 29.45337
1834.326, 29.51468
1836.254, 29.13999
1838.183, 28.91864
1840.111, 28.74253
1842.040, 28.32241
1843.968, 28.16240
1845.897, 28.11755
1847.825, 27.74671
1849.754, 27.82107
1851.682, 28.23998
1853.610, 28.34167
1855.539, 27.91209
1857.467, 27.33394
1859.396, 27.00470
1861.324, 26.77238
1863.253, 26.62860
1865.181, 26.28473
1867.110, 25.97357
1869.038, 26.37775
1870.967, 26.87055
1872.895, 26.49771
1874.824, 25.93192
1876.752, 25.47300
1878.681, 24.98724
1880.609, 24.87253
1882.537, 25.39048
1884.466, 25.78809
1886.394, 25.50423
1888.323, 25.32082
1890.251, 25.36455
1892.180, 25.34197
1894.108, 25.10742
1896.037, 25.08232
1897.965, 25.09311
1899.894, 24.54542
1901.822, 24.36608
1903.751, 24.46894
1905.679, 24.37031
1907.608, 24.46385
1909.536, 24.20063
1911.464, 24.16091
1913.393, 24.84353
1915.321, 24.56229
1917.250, 23.62132
1919.178, 23.64425
1921.107, 23.78722
1923.035, 23.65894
1924.964, 23.65559
1926.892, 23.52042
1928.821, 23.28510
1930.749, 23.31828
1932.678, 23.56769
1934.606, 23.57371
1936.535, 23.12023
1938.463, 22.87637
1940.391, 23.09546
1942.320, 23.18087
1944.248, 22.99406
1946.177, 22.81858
1948.105, 22.71280
1950.034, 22.64633
1951.962, 22.43419
1953.891, 22.25572
1955.819, 22.17521
1957.748, 22.09335
1959.676, 22.13870
1961.605, 22.02228
1963.533, 21.88488
1965.462, 21.99320
1967.390, 21.83529
1969.318, 21.56243
1971.247, 21.38449
1973.175, 21.33348
1975.104, 21.18077
1977.032, 21.14767
1978.961, 21.58555
1980.889, 21.63345
1982.818, 21.38906
1984.746, 21.20446
1986.675, 21.05839
1988.603, 21.23868
1990.532, 21.14422
1992.460, 20.87589
1994.389, 20.75830
1996.317, 20.61121
1998.245, 20.74401
2000.174, 20.50675
2002.102, 19.89608
2004.031, 19.77402
2005.959, 19.85050
2007.888, 20.34801
2009.816, 20.55428
2011.745, 19.94676
2013.673, 19.80565
2015.602, 19.89053
2017.530, 19.42242
2019.459, 19.24076
2021.387, 19.54590
2023.316, 19.48494
2025.244, 19.29977
2027.172, 19.26188
2029.101, 19.36224
2031.029, 19.33246
2032.958, 19.11650
2034.886, 19.12167
2036.815, 18.86866
2038.743, 18.44469
2040.672, 18.43368
2042.600, 18.58740
2044.529, 18.55174
2046.457, 18.79824
2048.386, 18.98008
2050.314, 18.74165
2052.243, 18.41666
2054.171, 18.04575
2056.100, 18.63599
2058.028, 19.03551
2059.957, 18.58256
2061.885, 18.32035
2063.813, 18.23488
2065.742, 18.20852
2067.670, 18.07686
2069.599, 17.73363
2071.527, 17.37135
2073.456, 17.11069
2075.384, 17.46520
2077.313, 17.96991
2079.241, 18.21744
2081.170, 17.80851
2083.098, 17.24446
2085.027, 17.55468
2086.955, 17.81584
2088.884, 17.85264
2090.812, 17.73453
2092.740, 17.24269
2094.669, 17.22014
2096.597, 17.38270
2098.526, 17.32761
2100.454, 17.08466
2102.383, 16.89100
2104.311, 16.96197
2106.240, 16.74502
2108.168, 16.21932
2110.097, 16.46257
2112.025, 16.87125
2113.954, 16.67320
2115.882, 16.73566
2117.811, 17.15794
2119.739, 16.87915
2121.667, 16.64913
2123.596, 16.79445
2125.524, 16.89500
2127.453, 16.91992
2129.381, 16.68427
2131.310, 16.49120
2133.238, 16.72297
2135.167, 16.77184
2137.095, 16.47280
2139.024, 16.16535
2140.952, 16.02828
2142.881, 15.99591
2144.809, 16.38008
2146.738, 16.82003
2148.666, 17.02124
2150.594, 16.98612
2152.523, 16.53436
2154.451, 16.71227
2156.380, 17.04450
2158.308, 17.05662
2160.237, 16.99029
2162.165, 16.79917
2164.094, 17.04709
2166.022, 17.21445
2167.951, 16.78984
2169.879, 16.56241
2171.808, 16.49511
2173.736, 16.37755
2175.665, 16.65883
2177.593, 17.20683
2179.521, 16.91940
2181.450, 16.49863
2183.378, 15.84941
2185.307, 15.51598
2187.235, 15.82917
2189.164, 15.88933
2191.092, 15.94478
2193.021, 15.95629
2194.949, 15.73603
2196.878, 15.62128
2198.806, 15.62243
2200.735, 15.51358
2202.663, 15.31660
2204.592, 15.33656
2206.520, 15.49995
2208.448, 14.89460
2210.377, 14.37271
2212.305, 14.38723
2214.234, 14.63425
2216.162, 14.74416
2218.091, 14.30438
2220.019, 14.09098
2221.948, 14.22439
2223.876, 14.38947
2225.805, 14.36908
2227.733, 14.29993
2229.662, 13.95156
2231.590, 13.66488
2233.519, 14.13835
2235.447, 14.29882
2237.375, 13.87773
2239.304, 13.79114
2241.232, 13.69341
2243.161, 13.24959
2245.089, 13.35688
2247.018, 13.81303
2248.946, 13.79212
2250.875, 13.41236
2252.803, 12.79212
2254.732, 13.03463
2256.660, 13.51024
2258.589, 13.19043
2260.517, 12.87426
2262.446, 12.93834
2264.374, 13.15674
2266.302, 13.16195
2268.231, 12.84949
2270.159, 12.56117
2272.088, 12.38647
2274.016, 12.91554
2275.945, 13.31420
2277.873, 13.07167
2279.802, 12.78402
2281.730, 12.77408
2283.659, 13.18583
2285.587, 13.42110
2287.516, 13.27672
2289.444, 12.72233
2291.373, 12.34113
2293.301, 12.18248
2295.229, 12.43157
2297.158, 12.71802
2299.086, 12.76079
2301.015, 12.52387
2302.943, 12.17954
2304.872, 11.97044
2306.800, 12.21330
2308.729, 12.62611
2310.657, 12.53171
2312.586, 12.10897
2314.514, 11.89405
2316.443, 12.12184
2318.371, 12.22868
2320.300, 12.00471
2322.228, 12.31612
2324.156, 12.58077
2326.085, 11.75537
2328.013, 11.62713
2329.942, 12.29722
2331.870, 11.79870
2333.799, 11.41705
2335.727, 11.80368
2337.656, 11.88323
2339.584, 11.64994
2341.513, 11.13678
2343.441, 11.16212
2345.370, 11.56397
2347.298, 11.13504
2349.227, 10.83564
2351.155, 10.99838
2353.083, 11.31968
2355.012, 11.33894
2356.940, 10.99351
2358.869, 10.91302
2360.797, 10.92056
2362.726, 10.87951
2364.654, 10.68061
2366.583, 10.63043
2368.511, 10.85879
2370.440, 10.96962
2372.368, 10.90458
2374.297, 10.94106
2376.225, 10.86040
2378.154, 10.59569
2380.082, 10.59794
2382.010, 10.64648
2383.939, 10.55985
2385.867, 10.54627
2387.796, 10.54555
2389.724, 10.15582
2391.653, 9.912538
2393.581, 10.09747
2395.510, 10.29140
2397.438, 10.39855
2399.367, 10.71554
2401.295, 10.54852
2403.224, 10.01459
2405.152, 9.739291
2407.081, 9.946253
2409.009, 10.33521
2410.938, 10.40301
2412.866, 10.06392
2414.794, 9.377755
2416.723, 9.678518
2418.651, 10.30748
2420.580, 10.60450
2422.508, 10.06220
2424.437, 9.584929
2426.365, 10.12758
2428.294, 9.889209
2430.222, 9.205122
2432.151, 9.939341
2434.079, 10.10418
2436.008, 9.521439
2437.936, 9.942451
2439.865, 10.23577
2441.793, 9.970073
2443.721, 9.374790
2445.650, 9.094174
2447.578, 9.544535
2449.507, 9.681160
2451.435, 9.389322
2453.364, 9.075617
2455.292, 9.442689
2457.221, 9.630739
2459.149, 9.237040
2461.078, 9.089170
2463.006, 9.117886
2464.935, 8.505026
2466.863, 8.607388
2468.792, 9.485849
2470.720, 9.394549
2472.648, 9.139125
2474.577, 9.253845
2476.505, 8.847925
2478.434, 8.459868
2480.362, 8.459421
2482.291, 8.529369
2484.219, 8.746580
2486.148, 9.033646
2488.076, 9.002141
2490.005, 8.849085
2491.933, 8.508114
2493.862, 8.308693
2495.790, 8.395404
2497.719, 8.783267
2499.647, 8.483869
2501.575, 7.907507
2503.504, 8.260411
2505.432, 8.429178
2507.361, 8.189826
2509.289, 8.144907
2511.218, 8.190382
2513.146, 8.246643
2515.075, 8.328844
2517.003, 8.069721
2518.932, 7.498192
2520.860, 8.250440
2522.789, 8.794807
2524.717, 7.834260
2526.646, 7.941376
2528.574, 8.183523
2530.502, 7.656835
2532.431, 7.782102
2534.359, 8.140871
2536.288, 8.642572
2538.216, 8.640361
2540.145, 8.169828
2542.073, 7.595365
2544.002, 7.522883
2545.930, 7.742071
2547.859, 8.104978
2549.787, 8.028175
2551.716, 7.528364
2553.644, 7.506796
2555.573, 7.976911
2557.501, 8.279723
2559.429, 7.869408
2561.358, 7.929594
2563.286, 8.234734
2565.215, 7.618269
2567.143, 6.999429
2569.072, 6.877613
2571.000, 6.885168
2572.929, 7.227413
2574.857, 7.599936
2576.786, 7.749570
2578.714, 7.778630
2580.643, 7.460196
2582.571, 7.136171
2584.500, 7.274667
2586.428, 7.598901
2588.356, 7.320035
2590.285, 7.269422
2592.213, 7.104539
2594.142, 7.436099
2596.070, 7.656687
2597.999, 7.735366
2599.927, 6.952010
2601.856, 6.515614
2603.784, 6.897087
2605.713, 6.820245
2607.641, 6.740615
2609.570, 6.904186
2611.498, 6.747467
2613.427, 6.710617
2615.355, 6.934106
2617.283, 6.649586
2619.212, 6.610389
2621.140, 6.696675
2623.069, 6.747185
2624.997, 6.912930
2626.926, 7.074222
2628.854, 6.886526
2630.783, 6.860635
2632.711, 6.895722
2634.640, 6.747851
2636.568, 6.663743
2638.497, 6.450618
2640.425, 7.052969
2642.354, 6.995663
2644.282, 5.877687
2646.210, 5.902046
2648.139, 6.448732
2650.067, 6.889258
2651.996, 6.571103
2653.924, 6.871904
2655.853, 7.236689
2657.781, 6.611647
2659.710, 6.353183
2661.638, 6.496036
2663.567, 6.470483
2665.495, 5.985512
2667.424, 5.766313
2669.352, 5.744698
2671.281, 5.969175
2673.209, 6.424139
2675.137, 6.176921
2677.066, 6.144414
2678.994, 6.309855
2680.923, 5.339334
2682.851, 5.123062
2684.780, 5.655910
2686.708, 5.706168
2688.637, 5.774956
2690.565, 6.063140
2692.494, 6.295386
2694.422, 5.965144
2696.351, 5.760886
2698.279, 6.153009
2700.208, 5.747565
2702.136, 5.582891
2704.064, 5.918626
2705.993, 5.783586
2707.921, 5.677392
2709.850, 5.899679
2711.778, 5.532308
2713.707, 5.345697
2715.635, 6.079582
2717.564, 6.080968
2719.492, 5.768801
2721.421, 5.714250
2723.349, 5.743691
2725.278, 5.602299
2727.206, 5.298167
2729.135, 5.790616
2731.063, 5.980344
2732.991, 5.460337
2734.920, 5.165614
2736.848, 5.187078
2738.777, 5.095994
2740.705, 4.938367
2742.634, 5.072019
2744.562, 5.236321
2746.491, 5.292479
2748.419, 5.499814
2750.348, 5.602866
2752.276, 5.560736
2754.205, 5.614231
2756.133, 5.477166
2758.062, 5.369964
2759.990, 5.112356
2761.918, 4.850807
2763.847, 5.174286
2765.775, 5.609198
2767.704, 5.660878
2769.632, 5.627784
2771.561, 4.768759
2773.489, 4.815585
2775.418, 5.277244
2777.346, 5.205325
2779.275, 5.076515
2781.203, 5.223521
2783.132, 5.451762
2785.060, 5.045976
2786.989, 5.043708
2788.917, 5.052556
2790.845, 4.779050
2792.774, 4.653873
2794.702, 4.625470
2796.631, 4.607080
2798.559, 4.913713
2800.488, 4.806544
2802.416, 4.233788
2804.345, 4.377125
2806.273, 4.633718
2808.202, 4.935836
2810.130, 4.250633
2812.059, 3.910371
2813.987, 4.731908
2815.916, 5.111509
2817.844, 4.725997
2819.772, 4.306371
2821.701, 4.485896
2823.629, 4.670386
2825.558, 4.493062
2827.486, 3.946145
2829.415, 3.994540
2831.343, 4.189369
2833.272, 4.597106
2835.200, 4.365819
2837.129, 4.269610
2839.057, 4.582118
2840.986, 4.214347
2842.914, 3.931583
2844.843, 3.885223
2846.771, 4.014607
2848.699, 4.136804
2850.628, 4.329177
2852.556, 4.399880
2854.485, 4.416101
2856.413, 4.014625
2858.342, 3.701234
2860.270, 4.167247
2862.199, 4.189991
2864.127, 4.183259
2866.056, 4.518899
2867.984, 4.316432
2869.913, 4.054315
2871.841, 3.525418
2873.770, 3.500375
2875.698, 3.557025
2877.626, 3.701441
2879.555, 4.366864
2881.483, 4.096172
2883.412, 3.533392
2885.340, 3.869622
2887.269, 3.729175
2889.197, 3.400898
2891.126, 3.269697
2893.054, 3.463571
2894.983, 3.521265
2896.911, 3.232530
2898.840, 4.005287
2900.768, 4.190043
2902.697, 3.669075
2904.625, 3.437568
2906.553, 3.378283
2908.482, 3.396391
2910.410, 4.048791
2912.339, 3.374561
2914.267, 3.138886
2916.196, 3.445121
2918.124, 3.434886
2920.053, 3.818627
2921.981, 3.907285
2923.910, 3.356182
2925.838, 3.887263
2927.767, 3.522394
2929.695, 2.790326
2931.624, 3.898932
2933.552, 3.511319
2935.480, 2.894634
2937.409, 3.198503
2939.337, 3.397008
2941.266, 3.485632
2943.194, 3.484217
2945.123, 3.352928
2947.051, 3.296225
2948.980, 3.119532
2950.908, 2.940128
2952.837, 3.303369
2954.765, 3.494212
2956.694, 3.513365
2958.622, 3.173169
2960.551, 2.859060
2962.479, 2.876662
2964.407, 2.797959
2966.336, 3.152040
2968.264, 3.031143
2970.193, 2.751144
2972.121, 2.826539
2974.050, 3.009887
2975.978, 3.177281
2977.907, 3.842245
2979.835, 2.974115
2981.764, 2.693547
2983.692, 3.093656
2985.621, 3.390734
2987.549, 3.522500
2989.478, 3.384164
2991.406, 3.158312
2993.334, 2.821324
2995.263, 3.305997
2997.191, 3.633781
2999.120, 2.719730
3001.048, 2.697251
3002.977, 3.001015
3004.905, 3.387458
3006.834, 2.954443
3008.762, 2.736466
3010.691, 2.974160
3012.619, 3.613798
3014.548, 3.221892
3016.476, 2.798315
3018.405, 2.795847
3020.333, 2.804963
3022.261, 2.730422
3024.190, 2.635079
3026.118, 2.536075
3028.047, 2.304998
3029.975, 2.313607
3031.904, 2.625201
3033.832, 2.205051
3035.761, 2.324309
3037.689, 2.870143
3039.618, 3.079567
3041.546, 1.835031
3043.475, 1.715973
3045.403, 2.702059
3047.332, 3.169077
3049.260, 2.664200
3051.188, 2.924651
3053.117, 3.289392
3055.045, 2.205826
3056.974, 2.902991
3058.902, 3.556864
3060.831, 2.969868
3062.759, 2.635651
3064.688, 2.687401
3066.616, 2.780472
3068.545, 2.468479
3070.473, 2.657163
3072.402, 2.783456
3074.330, 2.669358
3076.259, 2.833021
3078.187, 3.187494
3080.115, 3.235106
3082.044, 3.232157
3083.972, 3.460326
3085.901, 2.759012
3087.829, 2.444889
3089.758, 2.971251
3091.686, 2.988629
3093.615, 2.330977
3095.543, 1.739686
3097.472, 1.895608
3099.400, 1.990386
3101.329, 2.468848
3103.257, 2.923728
3105.186, 1.945746
3107.114, 1.764275
3109.042, 2.108653
3110.971, 2.467966
3112.899, 2.790653
3114.828, 2.859951
3116.756, 2.436961
3118.685, 1.611084
3120.613, 2.322016
3122.542, 2.299672
3124.470, 2.226164
3126.399, 2.802858
3128.327, 3.153089
3130.256, 2.924140
3132.184, 2.814281
3134.113, 3.190511
3136.041, 2.983799
3137.969, 2.326438
3139.898, 2.285961
3141.826, 2.981410
3143.755, 2.762873
3145.683, 2.866643
3147.612, 2.989000
3149.540, 1.943735
3151.469, 2.175912
3153.397, 2.786391
3155.326, 2.806316
3157.254, 2.837649
3159.183, 2.309922
3161.111, 1.709787
3163.040, 1.499099
3164.968, 1.929134
3166.896, 2.288575
3168.825, 2.340946
3170.753, 2.027977
3172.682, 1.554705
3174.610, 1.773490
3176.539, 2.076540
3178.467, 1.932432
3180.396, 2.317785
3182.324, 1.804171
3184.253, 1.705590
3186.181, 2.495450
3188.110, 2.198756
3190.038, 2.136776
3191.967, 2.108309
3193.895, 1.904389
3195.823, 2.245550
3197.752, 2.382212
3199.680, 2.285769
3201.609, 2.174780
3203.537, 3.190644
3205.466, 2.378906
3207.394, 1.507969
3209.323, 1.807428
3211.251, 2.437391
3213.180, 2.199282
3215.108, 2.278921
3217.037, 2.879274
3218.965, 2.145950
3220.894, 2.009272
3222.822, 1.863302
3224.750, 1.701239
3226.679, 2.219955
3228.607, 2.612573
3230.536, 2.030926
3232.464, 1.356094
3234.393, 2.065447
3236.321, 2.456994
3238.250, 2.250140
3240.178, 1.804344
3242.107, 1.607901
3244.035, 0.9489082
3245.964, 1.247494
3247.892, 1.985589
3249.821, 1.981716
3251.749, 1.920108
3253.677, 2.020762
3255.606, 2.083415
3257.534, 2.226696
3259.463, 2.773358
3261.391, 2.499477
3263.320, 2.084149
3265.248, 1.765625
3267.177, 2.129368
3269.105, 2.615309
3271.034, 2.817241
3272.962, 2.372963
3274.891, 1.808079
3276.819, 2.000236
3278.748, 2.425956
3280.676, 2.697895
3282.604, 2.921188
3284.533, 2.726259
3286.461, 2.040092
3288.390, 1.802749
3290.318, 2.402231
3292.247, 1.602721
3294.175, 1.769490
3296.104, 2.511319
3298.032, 2.585587
3299.961, 2.244120
3301.889, 2.125927
3303.818, 1.646398
3305.746, 0.8534495
3307.675, 1.733918
3309.603, 1.134855
3311.531, 0.5314315
3313.460, 0.8558540
3315.388, 2.396672
3317.317, 2.909090
3319.245, 2.409798
3321.174, 1.585999
3323.102, 1.162782
3325.031, 2.254016
3326.959, 2.701963
3328.888, 2.122279
3330.816, 1.173741
3332.745, 2.204376
3334.673, 2.197248
3336.602, 2.386185
3338.530, 2.740274
3340.458, 2.622424
3342.387, 2.494944
3344.315, 3.085021
3346.244, 3.538498
3348.172, 2.173731
3350.101, 3.059294
3352.029, 2.994164
3353.958, 2.305910
3355.886, 2.021494
3357.815, 2.997707
3359.743, 2.264559
3361.672, 1.937030
3363.600, 1.839378
3365.529, 1.501337
3367.457, 2.264611
3369.385, 2.134456
3371.314, 1.529774
3373.242, 1.049701
3375.171, 1.333025
3377.099, 1.468025
3379.028, 1.648609
3380.956, 1.579858
3382.885, 1.188214
3384.813, 1.780560
3386.742, 2.295528
3388.670, 2.074033
3390.599, 1.489762
3392.527, 1.624743
3394.456, 2.436899
3396.384, 1.515092
3398.313, 1.167495
3400.241, 2.561033
3402.169, 1.940489
3404.098, 1.864136
3406.026, 1.918126
3407.955, 2.138658
3409.883, 2.797955
3411.812, 2.108896
3413.740, 2.439220
3415.669, 2.656876
3417.597, 2.439864
3419.526, 2.808125
3421.454, 2.507543
3423.383, 2.627747
3425.311, 2.297931
3427.240, 1.320676
3429.168, 2.233283
3431.096, 2.447610
3433.025, 1.940181
3434.953, 1.748779
3436.882, 2.517666
3438.810, 1.529537
3440.739, 1.606977
3442.667, 1.703015
3444.596, 1.543848
3446.524, 1.742947
3448.453, 1.663493
3450.381, 1.812791
3452.310, 1.675149
3454.238, 1.199718
3456.167, 1.077363
3458.095, 1.217549
3460.023, 0.1971065
3461.952, 0.1807230
3463.880, 1.888094
3465.809, 2.059151
3467.737, 1.466649
3469.666, 0.6826497
3471.594, 0.8562198
3473.523, 2.253059
3475.451, 2.853917
3477.380, 1.899577
3479.308, 1.140683
3481.237, 0.9375588
3483.165, 1.146668
3485.094, 2.213505
3487.022, 2.109725
3488.950, 1.634945
3490.879, 1.523328
3492.807, 2.018224
3494.736, 2.743181
3496.664, 1.984161
3498.593, 1.586934
3500.521, 1.663102
3502.450, 1.672225
3504.378, 2.232903
3506.307, 1.755654
3508.235, 1.800217
3510.164, 2.082081
3512.092, 1.818833
3514.021, 1.340626
3515.949, 1.420223
3517.877, 1.486214
3519.806, 1.434430
3521.734, 1.396975
3523.663, 1.519494
3525.591, 1.808877
3527.520, 1.717561
3529.448, 1.648421
3531.377, 1.854437
3533.305, 1.652086
3535.234, 1.757877
3537.162, 1.664612
3539.091, 1.829596
3541.019, 2.346424
3542.948, 2.478723
3544.876, 2.380077
3546.804, 1.461090
3548.733, 1.636376
3550.661, 2.522122
3552.590, 1.835714
3554.518, 2.401008
3556.447, 3.368183
3558.375, 2.887079
3560.304, 1.905574
3562.232, 2.292810
3564.161, 2.636501
3566.089, 2.701364
3568.018, 2.527653
3569.946, 2.744983
3571.875, 3.303446
3573.803, 2.237658
3575.731, 2.012322
3577.660, 1.428327
3579.588, 0.6407856
3581.517, 0.5701644
3583.445, 2.208880
3585.374, 1.657286
3587.302, 1.162113
3589.231, 1.378545
3591.159, 1.914189
3593.088, 2.209754
3595.016, 2.275078
3596.945, 1.892113
3598.873, 1.796021
3600.802, 1.833680
3602.730, 1.857575
3604.658, 2.101175
3606.587, 2.066816
3608.515, 1.996093
3610.444, 2.397604
3612.372, 2.676635
3614.301, 2.147299
3616.229, 2.019672
3618.158, 2.056864
3620.086, 3.062069
3622.015, 3.293831
3623.943, 2.234980
3625.872, 1.407115
3627.800, 3.061576
3629.729, 2.613800
3631.657, 2.679047
3633.585, 3.013949
3635.514, 2.536792
3637.442, 2.193362
3639.371, 2.162867
3641.299, 1.917122
3643.228, 1.245552
3645.156, 0.9258142
3647.085, 1.639901
3649.013, 1.762534
3650.942, 1.814788
3652.870, 1.308245
3654.799, 1.547220
3656.727, 2.364626
3658.656, 2.071451
3660.584, 1.799918
3662.512, 1.128424
3664.441, 1.352053
3666.369, 1.673766
3668.298, 1.644245
3670.226, 1.955854
3672.155, 1.660030
3674.083, 2.122380
3676.012, 2.150172
3677.940, 1.914344
3679.869, 1.860208
3681.797, 1.889223
3683.726, 2.189912
3685.654, 1.378263
3687.583, 1.540342
3689.511, 2.166432
3691.439, 2.321037
3693.368, 2.274466
3695.296, 2.188472
3697.225, 1.960550
3699.153, 2.033385
3701.082, 2.018118
3703.010, 1.983606
3704.939, 2.657268
3706.867, 2.266416
3708.796, 1.502982
3710.724, 1.630455
3712.653, 1.669034
3714.581, 1.246132
3716.510, 1.248783
3718.438, 1.606098
3720.366, 0.6602260
3722.295, 1.364404
3724.223, 1.204266
3726.152, 0.1303722
3728.080, 0.4145370
3730.009, 1.124910
3731.937, 0.9982939
3733.866, 0.9588395
3735.794, 0.4378286
3737.723, 0.3624832
3739.651, 1.173580
3741.580, 1.009930
3743.508, 2.066203
3745.437, 2.039840
3747.365, 2.663571
3749.293, 2.522726
3751.222, 1.576864
3753.150, 1.769982
3755.079, 1.376914
3757.007, 1.808984
3758.936, 1.177982
3760.864, 1.263604
3762.793, 1.883149
3764.721, 1.936401
3766.650, 1.941159
3768.578, 3.120134
3770.507, 1.958384
3772.435, 1.395978
3774.364, 1.650185
3776.292, 1.741296
3778.220, 1.294449
3780.149, 0.8458239
3782.077, 1.457462
3784.006, 1.911417
3785.934, 0.8802913
3787.863, 0.9463150
3789.791, 2.107771
3791.720, 0.1590797
3793.648, 1.2796240E-02
3795.577, 0.8492129
3797.505, 1.743943
3799.434, 1.763080
3801.362, 0.9600841
3803.291, 0.4172278
3805.219, 1.308053
3807.147, 2.220633
3809.076, 1.990293
3811.004, 1.739363
3812.933, 0.8053113
3814.861, 0.8285264
3816.790, 1.983326
3818.718, 0.9543718
3820.647, 1.324862
3822.575, 2.408324
3824.504, 1.180350
3826.432, 1.236150
3828.361, 1.648656
3830.289, 0.9349734
3832.218, 1.243586
3834.146, 2.346154
3836.074, 1.040017
3838.003, 1.508564
3839.931, 1.195417
3841.860, 1.526812
3843.788, 2.420534
3845.717, 0.3987712
3847.645, 0.1497929
3849.574, 1.824599
3851.502, 1.374374
3853.431, 1.347282
3855.359, 1.372252
3857.288, 1.087374
3859.216, 1.233737
3861.145, 1.390822
3863.073, 0.6788912
3865.001, 1.697709
3866.930, 0.7600240
3868.858, 0.8286530
3870.787, 1.273545
3872.715, 0.8074542
3874.644, 1.019891
3876.572, 0.7801248
3878.501, 0.6548598
3880.429, 1.423429
3882.358, 0.7450805
3884.286, 0.4315318
3886.215, 1.018257
3888.143, 1.361848
3890.072, 1.382222
3892.000, 2.180497
3893.928, 1.538018
3895.857, 0.6609026
3897.785, 1.505631
3899.714, 2.483499
3901.642, 2.426091
3903.571, 1.804460
3905.499, 1.280464
3907.428, 2.301068
3909.356, 1.659370
3911.285, 1.711620
3913.213, 1.341342
3915.142, 0.8756267
3917.070, 0.7106966
3918.999, 0.7485477
3920.927, 1.245881
3922.855, 1.482250
3924.784, 0.3881994
3926.712, 0.6387967
3928.641, 0.9235502
3930.569, 1.276327
3932.498, 0.9634110
3934.426, 0.1796488
3936.355, 0.7676744
3938.283, 0.4765838
3940.212, 0.6840944
3942.140, 0.5096527
3944.069, 1.174710
3945.997, 1.871466
3947.926, 1.646798
3949.854, 1.243900
3951.782, 1.778003
3953.711, 2.350792
3955.639, 1.222185
3957.568, 1.228696
3959.496, 1.216541
3961.425, 2.533436
3963.353, 2.252777
3965.282, 1.490331
3967.210, 1.749695
3969.139, 2.007997
3971.067, 2.692933
3972.996, 1.896033
3974.924, 2.046836
3976.853, 1.957650
3978.781, 1.625049
3980.709, 1.360092
3982.638, 1.194247
3984.566, 1.175889
3986.495, 1.055102
3988.423, 0.8158091
3990.352, 0.3251755
3992.280, 0.7258781
3994.209, 0.2766317
3996.137, 0.8717074
3998.066, 0.6065126
3999.994, 0.3165316
4001.923, 1.588462
4003.851, 1.919945
4005.780, 1.129764
4007.708, 1.091570
4009.636, 1.294120
4011.565, 2.047296
4013.493, 1.077631
4015.422, 0.3755247
4017.350, 1.088276
4019.279, 2.014720
4021.207, 1.288579
4023.136, 0.6758189
4025.064, 1.211271
4026.993, 0.8872517
4028.921, -0.3697965
4030.850, 1.323306
4032.778, 1.625180
4034.707, 0.5604805
4036.635, 5.5236202E-02
4038.563, 0.6031954
4040.492, 0.8748261
4042.420, 0.5358666
4044.349, 0.3744646
4046.277, 0.6545032
4048.206, 0.7244362
4050.134, 0.2793775
4052.063, 0.6586230
4053.991, 1.025191
4055.920, 0.2371038
4057.848, 0.9000136
4059.777, 1.292691
4061.705, 0.7361432
4063.634, 0.6527240
4065.562, 1.242362
4067.490, 1.374619
4069.419, 1.069480
4071.347, 1.284277
4073.276, -8.2066827E-02
4075.204, 0.7850727
4077.133, 1.289318
4079.061, 1.592725
4080.990, 1.882007
4082.918, 1.589838
4084.847, 1.591019
4086.775, 2.806741
4088.704, 0.7210695
4090.632, 0.3537729
4092.561, 1.280789
4094.489, 0.7316290
4096.417, 1.016424
4098.346, 0.7492769
4100.274, 0.7086596
4102.203, 0.3958980
4104.131, -3.5723280E-02
4106.060, 0.1718800
4107.988, 0.4514396
4109.917, 0.7401408
4111.845, 1.569805
4113.774, 0.5592982
4115.702, -9.7351328E-02
4117.631, -0.1188472
4119.559, -0.1379712
4121.488, 0.8424702
4123.416, 1.263556
4125.345, 0.6091978
4127.273, 0.2315320
4129.202, 0.5621686
4131.130, 0.4984854
4133.059, -0.1758223
4134.987, -1.068571
4136.916, 0.2057774
4138.844, 0.1458878
4140.772, 0.2718343
4142.701, 1.573912
4144.629, 0.7857436
4146.558, 1.075209
4148.486, 2.142344
4150.415, 1.897589
4152.343, 1.689627
4154.271, 2.531541
4156.200, 2.077672
4158.128, 1.726242
4160.057, 0.5919185
4161.985, 0.3523027
4163.914, 0.9207610
4165.842, 1.174840
4167.771, 0.7744890
4169.699, 0.6642951
4171.628, 0.5967210
4173.556, 0.3406906
4175.485, 0.2641167
4177.413, 0.2558052
4179.342, 0.2310757
4181.270, 0.5600647
4183.199, -0.1045959
4185.127, -1.3105580E-02
4187.056, 0.1921111
4188.984, -2.9955620E-03
4190.913, 0.3828778
4192.841, -2.5444459E-02
4194.770, -0.8290741
4196.698, 0.3039907
4198.626, 0.1941250
4200.555, 0.7534900
4202.483, 1.335820
4204.412, 0.6089838
4206.340, 0.1010071
4208.269, 0.2758568
4210.197, 1.094132
4212.125, 1.765099
4214.054, 0.4474626
4215.982, -4.7911771E-02
4217.911, 1.098609
4219.839, 1.155837
4221.768, 0.9202019
4223.696, 0.1547160
4225.625, 9.4511554E-02
4227.553, 0.1349682
4229.482, 0.6986681
4231.410, 1.342021
4233.339, 0.7666836
4235.267, 0.2507356
4237.196, 0.3663732
4239.124, -0.1527952
4241.053, 0.4505400
4242.981, 0.4021216
4244.910, 0.9263951
4246.838, 0.9563459
4248.767, -0.3095792
4250.695, 0.3181796
4252.624, 9.1148755E-03
4254.552, 0.4928745
4256.480, 1.303932
4258.409, 0.6255649
4260.337, 0.2968907
4262.266, 1.095349
4264.194, 0.3883833
4266.123, 0.4700855
4268.051, 0.5898407
4269.979, 0.1882719
4271.908, 1.113540
4273.836, 0.9403265
4275.765, 0.4274041
4277.693, 1.720495
4279.622, 0.4314717
4281.550, -0.1119613
4283.479, 1.487277
4285.407, 0.7937812
4287.336, 0.6732322
4289.264, 0.1141710
4291.193, 0.5561301
4293.121, 0.5246841
4295.050, 1.342774
4296.978, 1.534454
4298.907, -0.3527028
4300.835, -0.8824587
4302.764, 6.5369047E-02
4304.692, -0.3558216
4306.621, 0.2641716
4308.549, 0.9289346
4310.478, 0.4840035
4312.406, 0.8277424
4314.334, 0.7516484
4316.263, 0.8567006
4318.191, 0.5965769
4320.120, 0.5939804
4322.048, 1.241939
4323.977, 0.8024259
4325.905, -0.1106186
4327.833, 0.5926374
4329.762, -0.1123365
4331.690, 1.528453
4333.619, 1.444210
4335.547, 0.1820979
4337.476, 0.4050532
4339.404, 1.222996
4341.333, 1.279030
4343.261, 0.5305822
4345.190, 0.7755699
4347.118, 0.1558185
4349.047, 0.5167114
4350.975, 1.146402
4352.904, 0.5337948
4354.832, 1.070729
4356.761, 1.139612
4358.689, 0.5786812
4360.618, 0.5292105
4362.546, 0.1222680
4364.475, 0.3049692
4366.403, 0.5530386
4368.332, 2.9641580E-02
4370.260, 0.5947458
4372.188, 0.4421774
4374.117, 0.2369873
4376.045, -0.2098480
4377.974, 0.7598807
4379.902, 1.694997
4381.831, 0.8074521



