300.00000	452.02951
302.00000	435.32571
304.00000	380.81921
306.00000	309.46921
308.00000	281.38608
310.00000	294.42059
312.00000	294.05939
314.00000	269.92545
316.00000	246.27475
318.00000	226.53351
320.00000	169.05540
322.00000	154.27739
324.00000	210.14246
326.00000	278.34659
328.00000	315.85907
330.00000	295.26181
332.00000	254.58870
334.00000	239.79063
336.00000	244.95445
338.00000	246.56508
340.00000	263.94788
342.00000	302.41046
344.00000	321.96979
346.00000	283.50720
348.00000	253.06985
350.00000	261.60074
352.00000	292.52625
354.00000	321.61621
356.00000	281.35077
358.00000	229.26164
360.00000	219.42557
362.00000	231.36798
364.00000	267.35413
366.00000	236.29080
368.00000	173.27162
370.00000	169.13544
372.00000	175.81050
374.00000	214.78255
376.00000	271.28506
378.00000	326.80820
380.00000	373.78864
382.00000	326.62268
384.00000	271.91312
386.00000	273.10309
388.00000	287.40985
390.00000	280.65286
392.00000	251.36224
394.00000	221.46021
396.00000	222.09076
398.00000	263.78909
400.00000	289.96350
402.00000	264.36520
404.00000	227.56140
406.00000	265.11276
408.00000	385.95258
410.00000	453.48822
412.00000	479.09259
414.00000	531.72229
416.00000	520.12860
418.00000	475.53857
420.00000	412.89880
422.00000	345.70300
424.00000	299.55780
426.00000	230.12947
428.00000	173.79243
430.00000	165.01030
432.00000	170.25827
434.00000	140.46249
436.00000	188.88370
438.00000	158.78539
440.00000	47.07499
442.00000	181.61940
444.00000	174.09157
446.00000	189.72516
448.00000	316.28967
450.00000	324.99713
452.00000	365.33325
454.00000	427.66339
456.00000	513.49109
458.00000	660.55219
460.00000	833.88013
462.00000	969.11755
464.00000	1010.57391
466.00000	955.32617
468.00000	847.94342
470.00000	709.82336
472.00000	557.12225
474.00000	419.70062
476.00000	329.36572
478.00000	290.19608
480.00000	277.63477
482.00000	260.88931
484.00000	271.32813
486.00000	350.43903
488.00000	321.57397
490.00000	279.46014
492.00000	290.53613
494.00000	282.82480
496.00000	298.47235
498.00000	263.66916
500.00000	219.18472
502.00000	227.08600
504.00000	205.72034
506.00000	190.87692
508.00000	181.72890
510.00000	167.87442
512.00000	170.00314
514.00000	186.91537
516.00000	180.30714
518.00000	165.59497
520.00000	175.24661
522.00000	171.32324
524.00000	172.28351
526.00000	175.33282
528.00000	179.28726
530.00000	200.87422
532.00000	197.66551
534.00000	191.36311
536.00000	212.92632
538.00000	246.33214
540.00000	244.84026
542.00000	218.16977
544.00000	207.91124
546.00000	229.41141
548.00000	245.74385
550.00000	236.30202
552.00000	214.47284
554.00000	205.55508
556.00000	215.76518
558.00000	221.49347
560.00000	238.63112
562.00000	255.15923
564.00000	240.00233
566.00000	204.18147
568.00000	174.13129
570.00000	181.48907
572.00000	233.59723
574.00000	282.13736
576.00000	240.34723
578.00000	198.33136
580.00000	195.96812
582.00000	187.17490
584.00000	209.30602
586.00000	185.79350
588.00000	146.31094
590.00000	147.05901
592.00000	137.63870
594.00000	144.45502
596.00000	171.04993
598.00000	185.32481
600.00000	173.96690
602.00000	194.95140
604.00000	240.14670
606.00000	314.24231
608.00000	386.27576
610.00000	358.64008
612.00000	379.87845
614.00000	441.85696
616.00000	458.94025
618.00000	439.52878
620.00000	419.45300
622.00000	402.09561
624.00000	357.79831
626.00000	286.80090
628.00000	264.04953
630.00000	261.87344
632.00000	248.38013
634.00000	239.30119
636.00000	265.44012
638.00000	283.24191
640.00000	271.54410
642.00000	261.43170
644.00000	275.01907
646.00000	249.61110
648.00000	244.25208
650.00000	246.09113
652.00000	200.42336
654.00000	154.97183
656.00000	155.04146
658.00000	220.31409
660.00000	287.29004
662.00000	258.60696
664.00000	196.57549
666.00000	188.25232
668.00000	222.23743
670.00000	228.57074
672.00000	211.22841
674.00000	213.31625
676.00000	224.68948
678.00000	221.27490
680.00000	211.65175
682.00000	177.81010
684.00000	165.44072
686.00000	178.58344
688.00000	159.42299
690.00000	112.68417
692.00000	108.70392
694.00000	156.52242
696.00000	199.77632
698.00000	207.71005
700.00000	241.84773
702.00000	273.93307
704.00000	298.34583
706.00000	372.11731
708.00000	438.62912
710.00000	527.59717
712.00000	556.34265
714.00000	481.36560
716.00000	515.33984
718.00000	432.17877
720.00000	270.95255
722.00000	194.72401
724.00000	155.37321
726.00000	116.84407
728.00000	109.41612
730.00000	112.99246
732.00000	83.71544
734.00000	94.08171
736.00000	113.27684
738.00000	111.60648
740.00000	97.88010
742.00000	93.74430
744.00000	129.15898
746.00000	150.45682
748.00000	137.75430
750.00000	154.15991
752.00000	201.06184
754.00000	160.69470
756.00000	90.51695
758.00000	112.49180
760.00000	122.48790
762.00000	104.90035
764.00000	75.77937
766.00000	50.42649
768.00000	46.32435
770.00000	77.68541
772.00000	92.53233
774.00000	59.80514
776.00000	28.16271
778.00000	70.58566
780.00000	90.96040
782.00000	105.53554
784.00000	132.50380
786.00000	65.86629
788.00000	53.82447
790.00000	69.63229
792.00000	77.73933
794.00000	116.24641
796.00000	80.88389
798.00000	58.39026
800.00000	86.02371
802.00000	93.20196
804.00000	55.72309
806.00000	71.18398
808.00000	101.57682
810.00000	77.24236
812.00000	33.03695
814.00000	19.80836
816.00000	100.79323
818.00000	172.64444
820.00000	112.94806
822.00000	87.27174
824.00000	108.09052
826.00000	131.10390
828.00000	122.13088
830.00000	82.88623
832.00000	97.61012
834.00000	150.19025
836.00000	141.43018
838.00000	50.70697
840.00000	58.62054
842.00000	70.40112
844.00000	56.16510
846.00000	73.76122
848.00000	75.41225
850.00000	53.72921
852.00000	53.58418
854.00000	100.74145
856.00000	151.43227
858.00000	140.43823
860.00000	135.33801
862.00000	157.28059
864.00000	158.39796
866.00000	156.74855
868.00000	158.57083
870.00000	175.18054
872.00000	186.53406
874.00000	144.90614
876.00000	105.99627
878.00000	109.22355
880.00000	122.09370
882.00000	105.66212
884.00000	122.70364
886.00000	139.44009
888.00000	150.22586
890.00000	171.28484
892.00000	166.09869
894.00000	134.94885
896.00000	181.99509
898.00000	250.66603
900.00000	170.28438
902.00000	163.54570
904.00000	158.34856
906.00000	115.04140
908.00000	111.74411
910.00000	119.53939
912.00000	154.09865
914.00000	163.67892
916.00000	136.47304
918.00000	161.76019
920.00000	196.60060
922.00000	208.13718
924.00000	223.08981
926.00000	257.59262
928.00000	233.47623
930.00000	217.61702
932.00000	223.55978
934.00000	214.16525
936.00000	207.31020
938.00000	203.27829
940.00000	208.31470
942.00000	215.00705
944.00000	205.09744
946.00000	194.18307
948.00000	174.84659
950.00000	189.89832
952.00000	247.54288
954.00000	226.56158
956.00000	203.34709
958.00000	203.01645
960.00000	199.68065
962.00000	200.46970
964.00000	205.61572
966.00000	202.61945
968.00000	200.89995
970.00000	210.21948
972.00000	194.60844
974.00000	199.95288
976.00000	238.41605
978.00000	272.89133
980.00000	283.88190
982.00000	308.15479
984.00000	292.69803
986.00000	253.77834
988.00000	287.84131
990.00000	319.52386
992.00000	336.89450
994.00000	362.97867
996.00000	418.45151
998.00000	517.72546
1000.00000	653.55823
1002.00000	867.66681
1004.00000	1199.81885
1006.00000	1546.97620
1008.00000	1581.67627
1010.00000	1379.63806
1012.00000	1101.26111
1014.00000	804.53931
1016.00000	585.30817
1018.00000	480.04010
1020.00000	378.29678
1022.00000	262.75858
1024.00000	292.77274
1026.00000	255.28938
1028.00000	221.18756
1030.00000	243.99425
1032.00000	207.22475
1034.00000	188.05162
1036.00000	173.91254
1038.00000	149.87242
1040.00000	133.06305
1042.00000	128.11647
1044.00000	138.16774
1046.00000	183.88161
1048.00000	236.35123
1050.00000	230.98341
1052.00000	227.34189
1054.00000	247.96043
1056.00000	275.97797
1058.00000	284.88474
1060.00000	270.58069
1062.00000	311.34915
1064.00000	349.82504
1066.00000	325.60168
1068.00000	325.81610
1070.00000	355.71265
1072.00000	409.25266
1074.00000	498.17883
1076.00000	672.14514
1078.00000	1024.69629
1080.00000	1564.33801
1082.00000	2236.69971
1084.00000	2932.91016
1086.00000	3440.38452
1088.00000	3398.77026
1090.00000	2976.72095
1092.00000	2433.39990
1094.00000	1812.29858
1096.00000	1399.38306
1098.00000	1076.92505
1100.00000	762.94073
1102.00000	574.69830
1104.00000	531.07739
1106.00000	413.73096
1108.00000	293.39078
1110.00000	292.65659
1112.00000	281.80750
1114.00000	266.43088
1116.00000	299.11841
1118.00000	312.45728
1120.00000	249.57118
1122.00000	322.87317
1124.00000	330.18289
1126.00000	287.21271
1128.00000	343.89517
1130.00000	380.49454
1132.00000	371.43192
1134.00000	352.95581
1136.00000	378.09540
1138.00000	441.42508
1140.00000	412.73978
1142.00000	362.38797
1144.00000	355.20239
1146.00000	369.31616
1148.00000	384.81934
1150.00000	356.84506
1152.00000	349.02448
1154.00000	355.84558
1156.00000	276.42920
1158.00000	335.56448
1160.00000	424.93054
1162.00000	431.97473
1164.00000	428.57828
1166.00000	435.50607
1168.00000	438.18396
1170.00000	422.01865
1172.00000	412.03384
1174.00000	433.49908
1176.00000	347.05740
1178.00000	325.48636
1180.00000	379.81454
1182.00000	290.12134
1184.00000	314.22803
1186.00000	303.41467
1188.00000	273.78439
1190.00000	349.63840
1192.00000	315.62125
1194.00000	274.67462
1196.00000	290.57883
1198.00000	313.40466
1200.00000	304.35461
1202.00000	329.84341
1204.00000	349.27118
1206.00000	360.09561
1208.00000	380.66617
1210.00000	299.47388
1212.00000	239.84210
1214.00000	258.82971
1216.00000	274.35059
1218.00000	224.75287
1220.00000	240.29044
1222.00000	246.06396
1224.00000	236.11183
1226.00000	303.13580
1228.00000	244.52396
1230.00000	274.80463
1232.00000	363.07663
1234.00000	326.12961
1236.00000	341.96634
1238.00000	401.73169
1240.00000	413.52713
1242.00000	418.84473
1244.00000	536.93048
1246.00000	576.46454
1248.00000	635.76367
1250.00000	761.06610
1252.00000	846.20831
1254.00000	917.72131
1256.00000	1028.35974
1258.00000	1174.95508
1260.00000	1334.85388
1262.00000	1507.28955
1264.00000	1653.92114
1266.00000	1830.89111
1268.00000	2049.54370
1270.00000	2265.71436
1272.00000	2545.73999
1274.00000	2769.80835
1276.00000	2952.93384
1278.00000	3219.26172
1280.00000	3539.22925
1282.00000	3779.52344
1284.00000	4011.74243
1286.00000	4358.35986
1288.00000	4736.76318
1290.00000	4898.02539
1292.00000	5186.21191
1294.00000	5535.53418
1296.00000	5655.64258
1298.00000	5966.42480
1300.00000	6036.93213
1302.00000	6055.13574
1304.00000	6208.87109
1306.00000	6030.70801
1308.00000	6031.49902
1310.00000	5938.20947
1312.00000	5665.09619
1314.00000	5581.67969
1316.00000	5337.69434
1318.00000	4955.64063
1320.00000	4672.43652
1322.00000	4489.67578
1324.00000	4121.11475
1326.00000	3885.39111
1328.00000	3610.22803
1330.00000	3229.70459
1332.00000	3053.13696
1334.00000	2752.35205
1336.00000	2460.72925
1338.00000	2257.87183
1340.00000	2022.51001
1342.00000	1798.45996
1344.00000	1619.53125
1346.00000	1478.13892
1348.00000	1378.03687
1350.00000	1310.02478
1352.00000	1110.33289
1354.00000	968.59869
1356.00000	972.74994
1358.00000	916.71161
1360.00000	714.93542
1362.00000	646.89020
1364.00000	631.56366
1366.00000	517.36908
1368.00000	542.61780
1370.00000	481.47141
1372.00000	443.28632
1374.00000	485.30872
1376.00000	417.30405
1378.00000	405.64053
1380.00000	419.82483
1382.00000	392.11282
1384.00000	363.29111
1386.00000	411.45715
1388.00000	414.29587
1390.00000	321.70044
1392.00000	228.38622
1394.00000	230.71834
1396.00000	198.42650
1398.00000	140.82933
1400.00000	152.44530
1402.00000	221.47914
1404.00000	177.87285
1406.00000	193.05432
1408.00000	236.49536
1410.00000	192.20943
1412.00000	176.82632
1414.00000	179.45541
1416.00000	216.32988
1418.00000	241.31017
1420.00000	187.22311
1422.00000	200.51047
1424.00000	214.11285
1426.00000	190.78421
1428.00000	177.99799
1430.00000	177.98296
1432.00000	228.51172
1434.00000	229.00600
1436.00000	194.24098
1438.00000	287.97571
1440.00000	288.35611
1442.00000	281.89713
1444.00000	284.73401
1446.00000	209.56519
1448.00000	238.38045
1450.00000	267.57922
1452.00000	208.35408
1454.00000	135.34081
1456.00000	168.32742
1458.00000	194.44521
1460.00000	187.49800
1462.00000	171.39967
1464.00000	142.06313
1466.00000	110.11652
1468.00000	124.35872
1470.00000	209.32793
1472.00000	271.25076
1474.00000	170.47238
1476.00000	185.25304
1478.00000	166.47675
1480.00000	65.19910
1482.00000	174.03603
1484.00000	140.42841
1486.00000	79.32790
1488.00000	136.19624
1490.00000	194.41953
1492.00000	140.57863
1494.00000	143.45341
1496.00000	192.70424
1498.00000	187.91551
1500.00000	186.24666
1502.00000	224.48552
1504.00000	203.63821
1506.00000	140.15388
1508.00000	155.64505
1510.00000	153.86580
1512.00000	175.27290
1514.00000	198.14308
1516.00000	170.78098
1518.00000	163.75246
1520.00000	198.66063
1522.00000	186.29375
1524.00000	127.80997
1526.00000	150.02005
1528.00000	187.59177
1530.00000	112.52087
1532.00000	31.06990
1534.00000	94.85258
1536.00000	108.13927
1538.00000	46.23948
1540.00000	97.11846
1542.00000	219.34738
1544.00000	99.73286
1546.00000	100.15931
1548.00000	215.81285
1550.00000	339.31378
1552.00000	482.37073
1554.00000	542.29596
1556.00000	526.34540
1558.00000	458.68976
1560.00000	456.12997
1562.00000	682.80176
1564.00000	765.86389
1566.00000	838.02856
1568.00000	1017.77283
1570.00000	1117.04785
1572.00000	1377.01978
1574.00000	1557.58142
1576.00000	1758.26062
1578.00000	2135.07666
1580.00000	2140.77271
1582.00000	2256.20483
1584.00000	2605.00366
1586.00000	2947.33545
1588.00000	3223.39819
1590.00000	3462.74121
1592.00000	3695.20239
1594.00000	3913.20117
1596.00000	4105.04297
1598.00000	4294.03027
1600.00000	4362.80957
1602.00000	4288.58594
1604.00000	4220.82520
1606.00000	4265.77686
1608.00000	4072.79028
1610.00000	3936.85962
1612.00000	3944.04736
1614.00000	3667.12061
1616.00000	3360.88062
1618.00000	3184.84790
1620.00000	2925.22119
1622.00000	2625.43970
1624.00000	2834.90869
1626.00000	2195.54810
1628.00000	1066.58105
1630.00000	907.77655
1632.00000	1672.88953
1634.00000	967.78387
1636.00000	700.32373
1638.00000	1096.46082
1640.00000	388.80515
1642.00000	669.55463
1644.00000	658.24512
1646.00000	356.31454
1648.00000	550.00702
1650.00000	443.65128
1652.00000	385.66330
1654.00000	369.62228
1656.00000	324.28290
1658.00000	371.89545
1660.00000	290.53162
1662.00000	266.51489
1664.00000	319.27988
1666.00000	325.41711
1668.00000	383.11273
1670.00000	292.57632
1672.00000	266.88525
1674.00000	387.69263
1676.00000	309.31885
1678.00000	226.12617
1680.00000	292.17715
1682.00000	332.07059
1684.00000	184.38028
1686.00000	190.99448
1688.00000	304.86142
1690.00000	293.24774
1692.00000	202.25616
1694.00000	330.62735
1696.00000	273.13080
1698.00000	180.06523
1700.00000	266.87427
1702.00000	343.31934
1704.00000	219.63266
1706.00000	253.63980
1708.00000	363.32907
1710.00000	279.83932
1712.00000	280.19690
1714.00000	260.63568
1716.00000	227.57632
1718.00000	285.46008
1720.00000	394.75916
1722.00000	323.85785
1724.00000	250.77332
1726.00000	322.31229
1728.00000	356.05298
1730.00000	137.04395
1732.00000	285.61856
1734.00000	383.22897
1736.00000	115.49768
1738.00000	298.30521
1740.00000	387.01535
1742.00000	323.26544
1744.00000	293.81982
1746.00000	286.39172
1748.00000	268.74652
1750.00000	178.75298
1752.00000	151.20004
1754.00000	260.58884
1756.00000	249.00658
1758.00000	140.06351
1760.00000	203.62868
1762.00000	301.61893
1764.00000	112.61673
1766.00000	375.07156
1768.00000	386.33081
1770.00000	143.58696
1772.00000	298.58875
1774.00000	306.91849
1776.00000	240.05756
1778.00000	282.42120
1780.00000	283.54883
1782.00000	44.29226
1784.00000	240.12915
1786.00000	307.30856
1788.00000	133.79095
1790.00000	303.78967
1792.00000	257.37677
1794.00000	229.76442
1796.00000	197.31801
1798.00000	84.24644
1800.00000	271.70212
1802.00000	213.09496
1804.00000	112.42632
1806.00000	172.05960
1808.00000	95.15084
1810.00000	109.93829
1812.00000	109.14653
1814.00000	93.24266
1816.00000	151.93401
1818.00000	114.54705
1820.00000	135.21455
1822.00000	190.54536
1824.00000	148.63492
1826.00000	51.49868
1828.00000	91.48715
1830.00000	164.71964
1832.00000	169.62979
1834.00000	175.82962
1836.00000	227.78874
1838.00000	197.51004
1840.00000	147.23123
1842.00000	165.79562
1844.00000	126.25893
1846.00000	99.25890
1848.00000	224.46782
1850.00000	330.41165
1852.00000	188.04056
1854.00000	287.63666
1856.00000	337.65259
1858.00000	234.94722
1860.00000	235.52541
1862.00000	295.67685
1864.00000	178.51556
1866.00000	215.48204
1868.00000	408.16397
1870.00000	217.18724
1872.00000	342.72192
1874.00000	392.65018
1876.00000	186.19598
1878.00000	199.83321
1880.00000	390.83777
1882.00000	302.63666
1884.00000	178.57054
1886.00000	266.06180
1888.00000	121.68307
1890.00000	153.02649
1892.00000	153.97949
1894.00000	85.35079
1896.00000	254.36179
1898.00000	179.42229
1900.00000	219.91049
1902.00000	261.30075
1904.00000	55.09265
1906.00000	178.48524
1908.00000	173.34868
1910.00000	153.37027
1912.00000	283.36496
1914.00000	219.54800
1916.00000	103.98626
1918.00000	150.53345
1920.00000	256.95709
1922.00000	205.95172
1924.00000	145.74051
1926.00000	132.95418
1928.00000	80.13757
1930.00000	21.87259
1932.00000	129.60405
1934.00000	82.31208
1936.00000	14.37324
1938.00000	15.40499
1940.00000	-5.03101
1942.00000	222.10724
1944.00000	147.37930
1946.00000	25.97975
1948.00000	260.36224
1950.00000	141.56311
1952.00000	95.77853
1954.00000	164.55379
1956.00000	100.50690
1958.00000	18.06589
1960.00000	333.04028
1962.00000	258.97968
1964.00000	14.16082
1966.00000	310.38818
1968.00000	159.19128
1970.00000	26.77500
1972.00000	103.21455
1974.00000	128.18484
1976.00000	63.97198
1978.00000	52.56492
1980.00000	107.12743
1982.00000	153.02579
1984.00000	141.28465
1986.00000	94.81453
1988.00000	46.31727
1990.00000	60.43561
1992.00000	138.30162
1994.00000	144.14418
1996.00000	32.02752
1998.00000	37.43639
2000.00000	88.10461
2002.00000	103.93327
2004.00000	106.33206
2006.00000	125.93188
2008.00000	145.01810
2010.00000	112.94902
2012.00000	88.13695
2014.00000	145.03441
2016.00000	190.43816
2018.00000	130.04276
2020.00000	100.63519
2022.00000	139.21315
2024.00000	165.78658
2026.00000	163.75307
2028.00000	210.49858
2030.00000	199.36147
2032.00000	169.08087
2034.00000	165.08081
2036.00000	159.39856
2038.00000	161.43845
2040.00000	207.55176
2042.00000	200.66347
2044.00000	95.88409
2046.00000	83.62180
2048.00000	141.60583
2050.00000	164.87177
2052.00000	146.37480
2054.00000	172.49385
2056.00000	186.75661
2058.00000	194.65460
2060.00000	195.18033
2062.00000	195.76399
2064.00000	275.84763
2066.00000	249.08479
2068.00000	145.68921
2070.00000	145.87164
2072.00000	234.44743
2074.00000	238.31078
2076.00000	204.48119
2078.00000	231.66962
2080.00000	261.94064
2082.00000	184.00439
2084.00000	164.61601
2086.00000	275.21048
2088.00000	339.54703
2090.00000	204.95958
2092.00000	172.61308
2094.00000	255.17119
2096.00000	269.35406
2098.00000	243.72720
2100.00000	249.65187
2102.00000	270.51129
2104.00000	270.09973
2106.00000	265.47336
2108.00000	299.66769
2110.00000	342.84860
2112.00000	318.34000
2114.00000	261.43954
2116.00000	358.64386
2118.00000	351.00406
2120.00000	264.31186
2122.00000	266.24313
2124.00000	287.10382
2126.00000	283.78622
2128.00000	290.23172
2130.00000	297.97830
2132.00000	262.18152
2134.00000	261.09567
2136.00000	290.58386
2138.00000	290.27097
2140.00000	253.52948
2142.00000	269.37198
2144.00000	288.02069
2146.00000	307.33347
2148.00000	315.34662
2150.00000	252.04131
2152.00000	231.73016
2154.00000	294.71008
2156.00000	309.94696
2158.00000	206.91844
2160.00000	283.80612
2162.00000	358.73694
2164.00000	322.64267
2166.00000	303.77182
2168.00000	374.79706
2170.00000	369.80530
2172.00000	313.72992
2174.00000	324.79871
2176.00000	380.39435
2178.00000	355.17166
2180.00000	332.96048
2182.00000	334.81049
2184.00000	293.57071
2186.00000	328.56561
2188.00000	367.18515
2190.00000	348.12357
2192.00000	315.50528
2194.00000	342.78967
2196.00000	396.28491
2198.00000	398.92328
2200.00000	349.17908
2202.00000	350.13904
2204.00000	451.31171
2206.00000	459.71082
2208.00000	355.12534
2210.00000	319.53488
2212.00000	338.58008
2214.00000	315.25558
2216.00000	295.28024
2218.00000	343.25314
2220.00000	368.79749
2222.00000	366.29181
2224.00000	359.57162
2226.00000	372.71970
2228.00000	411.26056
2230.00000	431.65155
2232.00000	366.48828
2234.00000	321.20126
2236.00000	397.26309
2238.00000	382.55579
2240.00000	361.64594
2242.00000	355.23099
2244.00000	328.81519
2246.00000	349.01465
2248.00000	414.58536
2250.00000	482.14127
2252.00000	475.34238
2254.00000	375.15427
2256.00000	348.41449
2258.00000	350.94379
2260.00000	351.53915
2262.00000	372.31464
2264.00000	348.90530
2266.00000	323.90912
2268.00000	364.54376
2270.00000	413.93225
2272.00000	342.73895
2274.00000	350.13599
2276.00000	386.13153
2278.00000	359.06946
2280.00000	348.88138
2282.00000	432.26901
2284.00000	412.23373
2286.00000	351.84573
2288.00000	409.68088
2290.00000	364.85568
2292.00000	298.20334
2294.00000	322.03860
2296.00000	388.53540
2298.00000	352.79022
2300.00000	286.08862
2302.00000	275.55246
2304.00000	304.14774
2306.00000	292.96695
2308.00000	261.37546
2310.00000	296.12875
2312.00000	325.06793
2314.00000	271.61359
2316.00000	285.26508
2318.00000	326.63638
2320.00000	339.48581
2322.00000	354.82886
2324.00000	455.93616
2326.00000	615.28656
2328.00000	668.86053
2330.00000	571.86182
2332.00000	470.69998
2334.00000	482.48288
2336.00000	488.49744
2338.00000	421.94357
2340.00000	351.59247
2342.00000	367.69806
2344.00000	455.47919
2346.00000	433.13330
2348.00000	317.18805
2350.00000	353.41806
2352.00000	364.22949
2354.00000	321.16559
2356.00000	313.72791
2358.00000	371.21899
2360.00000	373.94482
2362.00000	237.16063
2364.00000	230.44756
2366.00000	436.77005
2368.00000	382.34720
2370.00000	315.87970
2372.00000	327.47070
2374.00000	343.52466
2376.00000	341.93478
2378.00000	290.28311
2380.00000	269.84491
2382.00000	329.84549
2384.00000	359.79074
2386.00000	203.43259
2388.00000	266.38443
2390.00000	398.07779
2392.00000	295.94806
2394.00000	243.93309
2396.00000	298.00375
2398.00000	314.31995
2400.00000	279.88660
2402.00000	325.16086
2404.00000	315.02954
2406.00000	267.80786
2408.00000	303.87708
2410.00000	402.21921
2412.00000	320.99469
2414.00000	261.69919
2416.00000	276.44531
2418.00000	289.75250
2420.00000	339.68625
2422.00000	403.67493
2424.00000	409.66174
2426.00000	382.67963
2428.00000	398.73022
2430.00000	349.81198
2432.00000	314.30099
2434.00000	325.36859
2436.00000	320.20557
2438.00000	292.41635
2440.00000	286.51813
2442.00000	317.00174
2444.00000	340.27988
2446.00000	314.89096
2448.00000	333.51019
2450.00000	386.31769
2452.00000	370.50891
2454.00000	282.33212
2456.00000	351.14252
2458.00000	355.42053
2460.00000	306.25601
2462.00000	370.97580
2464.00000	384.72604
2466.00000	361.00708
2468.00000	273.41364
2470.00000	231.02922
2472.00000	398.65024
2474.00000	316.94727
2476.00000	233.24471
2478.00000	347.13797
2480.00000	409.86481
2482.00000	330.05569
2484.00000	311.91193
2486.00000	344.05923
2488.00000	285.64520
2490.00000	229.65808
2492.00000	288.01578
2494.00000	371.84393
2496.00000	376.32822
2498.00000	352.02112
2500.00000	362.45435
2502.00000	333.93997
2504.00000	290.76328
2506.00000	346.60858
2508.00000	417.69797
2510.00000	313.05109
2512.00000	302.23080
2514.00000	514.92676
2516.00000	428.96313
2518.00000	369.68991
2520.00000	360.29587
2522.00000	310.97757
2524.00000	307.60480
2526.00000	228.27235
2528.00000	267.62448
2530.00000	388.40985
2532.00000	337.96228
2534.00000	231.29749
2536.00000	219.12675
2538.00000	346.18781
2540.00000	411.79135
2542.00000	186.27466
2544.00000	253.14670
2546.00000	352.90390
2548.00000	255.66335
2550.00000	297.76147
2552.00000	307.55490
2554.00000	302.88083
2556.00000	363.11365
2558.00000	415.94409
2560.00000	286.67038
2562.00000	218.03865
2564.00000	248.43628
2566.00000	278.52151
2568.00000	355.63452
2570.00000	454.90073
2572.00000	441.79388
2574.00000	374.45959
2576.00000	430.65726
2578.00000	419.85352
2580.00000	485.65936
2582.00000	477.43958
2584.00000	290.75580
2586.00000	481.12158
2588.00000	609.04102
2590.00000	585.30615
2592.00000	686.02985
2594.00000	892.79901
2596.00000	768.26990
2598.00000	635.88599
2600.00000	834.18311
2602.00000	1079.99878
2604.00000	914.74634
2606.00000	927.58838
2608.00000	1097.24170
2610.00000	987.16467
2612.00000	963.42761
2614.00000	1100.35718
2616.00000	1212.20386
2618.00000	1145.94116
2620.00000	1017.79144
2622.00000	1170.79675
2624.00000	1579.40149
2626.00000	1540.26379
2628.00000	916.26636
2630.00000	1437.93701
2632.00000	1230.84924
2634.00000	842.90179
2636.00000	1313.95703
2638.00000	238.58072
2640.00000	291.41455
2642.00000	998.60126
2644.00000	791.43970
2646.00000	505.84198
2648.00000	719.45770
2650.00000	736.27771
2652.00000	430.45081
2654.00000	470.94812
2656.00000	640.71185
2658.00000	479.47220
2660.00000	369.13757
2662.00000	618.43866
2664.00000	502.12643
2666.00000	324.31500
2668.00000	384.12366
2670.00000	447.77304
2672.00000	231.03236
2674.00000	437.35345
2676.00000	521.17200
2678.00000	332.90878
2680.00000	382.20453
2682.00000	402.36731
2684.00000	230.66620
2686.00000	161.10779
2688.00000	352.15421
2690.00000	367.71524
2692.00000	169.02602
2694.00000	183.45380
2696.00000	411.79654
2698.00000	325.09442
2700.00000	104.52994
2702.00000	157.93892
2704.00000	323.96738
2706.00000	228.34550
2708.00000	182.08871
2710.00000	224.96150
2712.00000	242.02728
2714.00000	212.93001
2716.00000	258.22931
2718.00000	315.19537
2720.00000	259.39487
2722.00000	217.24147
2724.00000	345.30466
2726.00000	220.25723
2728.00000	276.18765
2730.00000	396.00735
2732.00000	206.20964
2734.00000	280.95313
2736.00000	246.19890
2738.00000	139.92534
2740.00000	264.54642
2742.00000	461.16055
2744.00000	326.54874
2746.00000	332.64697
2748.00000	498.33246
2750.00000	267.37759
2752.00000	194.07680
2754.00000	332.30551
2756.00000	333.23114
2758.00000	139.89905
2760.00000	268.63541
2762.00000	414.65918
2764.00000	268.88080
2766.00000	68.82655
2768.00000	263.40826
2770.00000	323.11505
2772.00000	265.03690
2774.00000	331.73309
2776.00000	410.99152
2778.00000	129.40877
2780.00000	153.05357
2782.00000	313.85333
2784.00000	149.06082
2786.00000	262.37698
2788.00000	336.38358
2790.00000	284.03036
2792.00000	331.55804
2794.00000	498.83572
2796.00000	334.20016
2798.00000	219.46300
2800.00000	357.43036
2802.00000	374.66846
2804.00000	176.50099
2806.00000	336.91940
2808.00000	573.56177
2810.00000	348.84393
2812.00000	163.76897
2814.00000	488.75128
2816.00000	587.33429
2818.00000	247.68896
2820.00000	370.42279
2822.00000	489.69498
2824.00000	324.72989
2826.00000	204.71634
2828.00000	409.56418
2830.00000	373.66336
2832.00000	159.30608
2834.00000	240.02844
2836.00000	537.70801
2838.00000	350.04929
2840.00000	579.82104
2842.00000	639.24213
2844.00000	239.05815
2846.00000	284.20172
2848.00000	272.44501
2850.00000	116.54383
2852.00000	197.74934
2854.00000	503.52997
2856.00000	209.73865
2858.00000	84.69077
2860.00000	344.36575
2862.00000	486.81891
2864.00000	307.74689
2866.00000	225.21149
2868.00000	530.94617
2870.00000	702.64777
2872.00000	247.28015
2874.00000	490.58264
2876.00000	650.14618
2878.00000	372.97415
2880.00000	377.19989
2882.00000	714.92072
2884.00000	518.51392
2886.00000	430.03992
2888.00000	781.56500
2890.00000	380.53912
2892.00000	431.72687
2894.00000	805.37665
2896.00000	720.17706
2898.00000	312.18811
2900.00000	670.51587
2902.00000	764.14282
2904.00000	473.33316
2906.00000	565.54913
2908.00000	599.16272
2910.00000	464.12854
2912.00000	636.99432
2914.00000	949.49017
2916.00000	537.14258
2918.00000	471.35745
2920.00000	715.09930
2922.00000	634.07623
2924.00000	306.55847
2926.00000	713.13123
2928.00000	854.26910
2930.00000	540.47540
2932.00000	494.56967
2934.00000	589.64056
2936.00000	369.22208
2938.00000	253.99031
2940.00000	487.33325
2942.00000	513.26495
2944.00000	533.49487
2946.00000	598.36511
2948.00000	600.01080
2950.00000	490.76846
2952.00000	382.06677
2954.00000	404.47360
2956.00000	493.55286
2958.00000	580.71954
2960.00000	694.86475
2962.00000	340.42047
2964.00000	136.43633
2966.00000	473.10504
2968.00000	583.45770
2970.00000	237.31567
2972.00000	302.42447
2974.00000	568.78210
2976.00000	222.37343
2978.00000	187.47081
2980.00000	151.58861
2982.00000	144.91582
2984.00000	305.13309
2986.00000	181.10561
2988.00000	319.72040
2990.00000	436.29855
2992.00000	244.77579
2994.00000	137.78503
2996.00000	192.64102
2998.00000	380.42731
3000.00000	407.94333
3002.00000	177.47147
3004.00000	251.57892
3006.00000	134.38118
3008.00000	179.30463
3010.00000	551.16943
3012.00000	280.19568
3014.00000	252.92004
3016.00000	371.74344
3018.00000	221.40123
3020.00000	15.30206
3022.00000	49.59542
3024.00000	246.78792
3026.00000	254.16922
3028.00000	51.56260
3030.00000	261.69922
3032.00000	466.63092
3034.00000	230.67488
3036.00000	10.89469
3038.00000	530.83105
3040.00000	287.91513
3042.00000	-34.54162
3044.00000	245.51784
3046.00000	346.77280
3048.00000	58.97874
3050.00000	132.46413
3052.00000	352.40240
3054.00000	202.21794
3056.00000	407.34177
3058.00000	277.58295
3060.00000	-56.62974
3062.00000	18.30552
3064.00000	314.30466
3066.00000	11.35805
3068.00000	361.16409
3070.00000	934.07538
3072.00000	82.43027
3074.00000	113.15942
3076.00000	813.92810
3078.00000	713.67676
3080.00000	-1.95306
3082.00000	787.18988
3084.00000	615.19366
3086.00000	219.13339
3088.00000	762.56586
3090.00000	614.75952
3092.00000	57.17566
3094.00000	396.73642
3096.00000	1137.56201
3098.00000	710.15948
3100.00000	121.96245
3102.00000	455.61954
3104.00000	629.73059
3106.00000	0.66557
3108.00000	633.82294
3110.00000	1159.40552
3112.00000	646.80151
3114.00000	64.30029
3116.00000	592.26221
3118.00000	431.80075
3120.00000	397.55994
3122.00000	879.42554
3124.00000	845.03668
3126.00000	439.42722
3128.00000	518.73547
3130.00000	723.00183
3132.00000	632.23474
3134.00000	1050.28406
3136.00000	1161.50195
3138.00000	715.72797
3140.00000	548.06860
3142.00000	1214.67224
3144.00000	1075.90479
3146.00000	784.85114
3148.00000	1004.38416
3150.00000	1107.17480
3152.00000	511.62494
3154.00000	493.48724
3156.00000	889.35590
3158.00000	893.50708
3160.00000	926.77814
3162.00000	982.92523
3164.00000	876.41357
3166.00000	960.29828
3168.00000	1348.76367
3170.00000	369.86023
3172.00000	459.57904
3174.00000	1337.40771
3176.00000	684.81824
3178.00000	261.84601
3180.00000	801.33508
3182.00000	872.34070
3184.00000	224.02182
3186.00000	1012.33868
3188.00000	1551.30249
3190.00000	924.39960
3192.00000	380.43628
3194.00000	1055.90063
3196.00000	697.96454
3198.00000	566.69006
3200.00000	1211.55115
