357.294464 6955.000000
359.564850 6820.000000
361.834381 6657.000000
364.103058 5568.000000
366.370880 5830.000000
368.637848 5091.000000
370.903992 6566.000000
373.169250 6624.000000
375.433685 6796.000000
377.697296 7069.000000
379.960022 7647.000000
382.221924 7932.000000
384.482971 8087.000000
386.743195 8244.000000
389.002533 8311.000000
391.261047 8164.000000
393.518738 8254.000000
395.775543 8598.000000
398.031525 8668.000000
400.286682 8447.000000
402.540985 8649.000000
404.794434 9403.000000
407.047028 9518.000000
409.298828 9455.000000
411.549744 10123.000000
413.799835 10291.000000
416.049072 10164.000000
418.297485 9144.000000
420.545044 9303.000000
422.791779 8324.000000
425.037659 8090.000000
427.282715 8093.000000
429.526917 7292.000000
431.770294 7834.000000
434.012848 7766.000000
436.254547 6743.000000
438.495392 7138.000000
440.735413 7449.000000
442.974609 7316.000000
445.212952 7670.000000
447.450470 6624.000000
449.687164 7257.000000
451.923004 7283.000000
454.157990 6989.000000
456.392181 6656.000000
458.625519 5784.000000
460.858032 6814.000000
463.089691 6723.000000
465.320557 6916.000000
467.550537 7211.000000
469.779724 7038.000000
472.008057 7325.000000
474.235596 8063.000000
476.462250 8370.000000
478.688110 8427.000000
480.913147 8692.000000
483.137329 8605.000000
485.360687 7922.000000
487.583221 8708.000000
489.804901 8137.000000
492.025787 8420.000000
494.245819 7943.000000
496.465057 8741.000000
498.683441 8502.000000
500.901001 8470.000000
503.117737 8645.000000
505.333618 9107.000000
507.548706 8855.000000
509.762970 9182.000000
511.976379 10130.000000
514.188965 10358.000000
516.400757 9801.000000
518.611755 8201.000000
520.821838 7721.000000
523.031128 6407.000000
525.239624 5267.000000
527.447266 5804.000000
529.654114 5210.000000
531.860168 5137.000000
534.065308 5594.000000
536.269714 5059.000000
538.473267 5572.000000
540.675964 5678.000000
542.877869 5215.000000
545.078979 5080.000000
547.279236 4975.000000
549.478638 5000.000000
551.677307 4283.000000
553.875061 5201.000000
556.072083 4883.000000
558.268250 4744.000000
560.463562 5364.000000
562.658142 5255.000000
564.851807 5328.000000
567.044739 5395.000000
569.236816 5321.000000
571.428040 5411.000000
573.618530 5784.000000
575.808167 5266.000000
577.996948 4988.000000
580.184937 5451.000000
582.372131 5428.000000
584.558533 5189.000000
586.744080 5298.000000
588.928833 4730.000000
591.112732 5496.000000
593.295837 5854.000000
595.478149 5657.000000
597.659668 5354.000000
599.840332 5568.000000
602.020203 5191.000000
604.199219 5190.000000
606.377502 5827.000000
608.554932 4615.000000
610.731567 4696.000000
612.907349 4777.000000
615.082336 5147.000000
617.256531 5177.000000
619.429932 4817.000000
621.602539 5354.000000
623.774292 4626.000000
625.945251 5401.000000
628.115356 5237.000000
630.284729 4644.000000
632.453247 4578.000000
634.620972 5044.000000
636.787903 5873.000000
638.954041 5173.000000
641.119324 5727.000000
643.283875 4690.000000
645.447571 5358.000000
647.610413 5611.000000
649.772522 5339.000000
651.933838 5211.000000
654.094299 5084.000000
656.253967 5141.000000
658.412842 4476.000000
660.570923 4883.000000
662.728210 5441.000000
664.884644 5153.000000
667.040344 5062.000000
669.195190 5295.000000
671.349243 4589.000000
673.502502 5510.000000
675.654968 5390.000000
677.806641 5079.000000
679.957520 5035.000000
682.107544 4939.000000
684.256836 5652.000000
686.405273 4951.000000
688.552979 4272.000000
690.699829 4804.000000
692.845886 5683.000000
694.991150 5305.000000
697.135620 5142.000000
699.279297 5098.000000
701.422180 4697.000000
703.564270 4848.000000
705.705566 4375.000000
707.846069 5381.000000
709.985779 5653.000000
712.124695 4659.000000
714.262756 5557.000000
716.400085 5340.000000
718.536621 5888.000000
720.672363 5141.000000
722.807251 5306.000000
724.941406 5454.000000
727.074768 5141.000000
729.207336 4605.000000
731.339050 5697.000000
733.470032 5544.000000
735.600220 5546.000000
737.729614 5549.000000
739.858215 5389.000000
741.986023 4917.000000
744.113037 5600.000000
746.239258 4912.000000
748.364685 5646.000000
750.489319 4878.000000
752.613220 5602.000000
754.736267 5412.000000
756.858582 5665.000000
758.980042 5760.000000
761.100769 4661.000000
763.220703 5466.000000
765.339844 5349.000000
767.458130 5311.000000
769.575745 4871.000000
771.692505 5243.000000
773.808472 4675.000000
775.923706 5286.000000
778.038086 5496.000000
780.151733 4695.000000
782.264587 4623.000000
784.376648 4552.000000
786.487915 4755.000000
788.598450 5027.000000
790.708130 5051.000000
792.817078 5020.000000
794.925232 4441.000000
797.032593 4436.000000
799.139160 5060.000000
801.244995 4483.000000
803.349976 5117.000000
805.454224 5162.000000
807.557678 5485.000000
809.660400 5625.000000
811.762268 6272.000000
813.863403 5277.000000
815.963745 5718.000000
818.063293 4867.000000
820.162109 5321.000000
822.260071 5553.000000
824.357300 5239.000000
826.453796 5802.000000
828.549438 5772.000000
830.644348 4622.000000
832.738464 5035.000000
834.831787 5177.000000
836.924377 4663.000000
839.016174 4238.000000
841.107178 5501.000000
843.197388 5345.000000
845.286865 4391.000000
847.375549 4099.000000
849.463501 4707.000000
851.550598 4374.000000
853.636963 5110.000000
855.722595 5297.000000
857.807373 5203.000000
859.891418 5362.000000
861.974731 4986.000000
864.057251 5262.000000
866.138977 4348.000000
868.219910 5207.000000
870.300110 4948.000000
872.379517 5884.000000
874.458191 5530.000000
876.536072 5717.000000
878.613159 6033.000000
880.689514 4645.000000
882.765076 5194.000000
884.839844 5511.000000
886.913879 4858.000000
888.987122 5445.000000
891.059631 5272.000000
893.131348 5405.000000
895.202332 5461.000000
897.272522 5518.000000
899.341919 5141.000000
901.410583 5886.000000
903.478516 5859.000000
905.545593 5302.000000
907.612000 5117.000000
909.677551 5535.000000
911.742371 5501.000000
913.806458 5910.000000
915.869751 5315.000000
917.932312 5548.000000
919.994080 5060.000000
922.055054 5622.000000
924.115356 5367.000000
926.174805 4498.000000
928.233521 5417.000000
930.291504 5104.000000
932.348694 5685.000000
934.405090 5461.000000
936.460815 5820.000000
938.515686 5641.000000
940.569824 5603.000000
942.623230 4891.000000
944.675903 5425.000000
946.727722 5993.000000
948.778870 5298.000000
950.829224 5887.000000
952.878784 5535.000000
954.927612 5765.000000
956.975708 6004.000000
959.023010 5123.000000
961.069580 4889.000000
963.115417 5468.000000
965.160461 4805.000000
967.204712 5216.000000
969.248230 5700.000000
971.291016 5243.000000
973.333069 4673.000000
975.374329 5086.000000
977.414795 4799.000000
979.454590 5638.000000
981.493591 4850.000000
983.531799 4694.000000
985.569336 4539.000000
987.606018 5254.000000
989.642029 5344.000000
991.677246 5313.000000
993.711731 6075.000000
995.745483 5266.000000
997.778442 4924.000000
999.810669 4546.000000
1001.842102 5221.000000
1003.872803 5777.000000
1005.902771 6120.000000
1007.932007 4769.000000
1009.960449 5223.000000
1011.988159 5247.000000
1014.015137 6278.000000
1016.041382 5366.000000
1018.066833 5225.000000
1020.091553 4851.000000
1022.115479 5540.000000
1024.138672 6246.000000
1026.161255 6126.000000
1028.182861 5548.000000
1030.203857 6316.000000
1032.224121 6002.000000
1034.243652 5974.000000
1036.262329 5056.000000
1038.280273 6291.000000
1040.297607 6284.000000
1042.314087 6168.000000
1044.329834 6053.000000
1046.344849 6066.000000
1048.359009 5462.000000
1050.372559 5134.000000
1052.385376 5899.000000
1054.397339 6156.000000
1056.408691 6085.000000
1058.419189 6032.000000
1060.428955 5779.000000
1062.437988 5585.000000
1064.446411 5360.000000
1066.453979 5135.000000
1068.460693 5919.000000
1070.466797 5469.000000
1072.472168 6150.000000
1074.476807 6161.000000
1076.480591 5729.000000
1078.483765 5844.000000
1080.486084 6436.000000
1082.487793 6554.000000
1084.488647 5700.000000
1086.488892 6401.000000
1088.488281 6157.000000
1090.486938 5669.000000
1092.484863 6095.000000
1094.482056 5932.000000
1096.478516 6625.000000
1098.474243 6116.000000
1100.469238 4964.000000
1102.463501 5965.000000
1104.457031 5576.000000
1106.449829 6641.000000
1108.441895 6242.000000
1110.433228 6084.000000
1112.423828 5482.000000
1114.413574 5489.000000
1116.402710 5859.000000
1118.391113 6073.000000
1120.378662 6298.000000
1122.365601 5353.000000
1124.351807 6494.000000
1126.337158 6311.000000
1128.321899 6054.000000
1130.305908 6685.000000
1132.289062 6637.000000
1134.271606 6901.000000
1136.253418 6001.000000
1138.234375 4978.000000
1140.214722 6132.000000
1142.194336 6475.000000
1144.173096 5327.000000
1146.151245 6463.000000
1148.128662 6095.000000
1150.105347 5013.000000
1152.081177 6167.000000
1154.056396 6066.000000
1156.030884 6051.000000
1158.004639 6761.000000
1159.977661 6352.000000
1161.949951 6409.000000
1163.921387 5539.000000
1165.892212 6440.000000
1167.862305 5226.000000
1169.831665 5154.000000
1171.800415 6162.000000
1173.768311 6221.000000
1175.735474 6121.000000
1177.701904 6162.000000
1179.667603 6918.000000
1181.632690 6769.000000
1183.596924 6138.000000
1185.560547 6361.000000
1187.523315 6513.000000
1189.485474 6968.000000
1191.446777 6551.000000
1193.407471 6437.000000
1195.367432 6509.000000
1197.326660 7026.000000
1199.285156 6849.000000
1201.242920 6616.000000
1203.199951 6735.000000
1205.156250 6217.000000
1207.111816 6853.000000
1209.066772 6513.000000
1211.020874 6825.000000
1212.974365 6425.000000
1214.927002 6114.000000
1216.879028 6553.000000
1218.830322 6522.000000
1220.780884 6701.000000
1222.730713 6613.000000
1224.679810 6601.000000
1226.628174 7301.000000
1228.575806 6713.000000
1230.522827 7397.000000
1232.469116 6936.000000
1234.414551 6567.000000
1236.359375 6865.000000
1238.303467 6083.000000
1240.246826 6287.000000
1242.189453 6776.000000
1244.131470 6847.000000
1246.072632 7183.000000
1248.013184 7406.000000
1249.952881 7760.000000
1251.891968 7042.000000
1253.830322 6476.000000
1255.767944 6425.000000
1257.704956 7008.000000
1259.641113 6239.000000
1261.576660 6142.000000
1263.511353 6288.000000
1265.445435 8074.000000
1267.378784 7961.000000
1269.311523 6803.000000
1271.243408 6278.000000
1273.174561 6336.000000
1275.105103 6687.000000
1277.034912 7237.000000
1278.963989 7155.000000
1280.892334 6558.000000
1282.820068 6861.000000
1284.746948 6900.000000
1286.673218 7128.000000
1288.598755 6726.000000
1290.523560 7770.000000
1292.447632 7598.000000
1294.371094 7645.000000
1296.293701 7469.000000
1298.215698 7579.000000
1300.136963 7647.000000
1302.057495 6576.000000
1303.977417 7863.000000
1305.896484 7800.000000
1307.814941 8117.000000
1309.732666 7757.000000
1311.649780 6972.000000
1313.566040 7097.000000
1315.481689 7966.000000
1317.396606 8107.000000
1319.310791 7776.000000
1321.224243 8132.000000
1323.136963 8034.000000
1325.049072 7590.000000
1326.960449 7754.000000
1328.871094 7338.000000
1330.781128 6658.000000
1332.690308 6793.000000
1334.598877 6929.000000
1336.506836 7948.000000
1338.413940 7421.000000
1340.320435 7260.000000
1342.226074 8294.000000
1344.131104 6807.000000
1346.035522 7703.000000
1347.939087 7985.000000
1349.842041 6865.000000
1351.744263 7431.000000
1353.645874 7409.000000
1355.546631 8033.000000
1357.446777 7985.000000
1359.346191 8243.000000
1361.244995 7717.000000
1363.142944 7373.000000
1365.040283 7737.000000
1366.937012 7495.000000
1368.832886 8111.000000
1370.728149 8161.000000
1372.622681 7348.000000
1374.516479 7915.000000
1376.409668 7695.000000
1378.302124 8220.000000
1380.193848 7765.000000
1382.084839 8188.000000
1383.975220 8082.000000
1385.864868 7543.000000
1387.753784 8249.000000
1389.642090 8043.000000
1391.529663 7895.000000
1393.416504 6973.000000
1395.302734 8039.000000
1397.188232 8674.000000
1399.072998 7922.000000
1400.957031 7607.000000
1402.840454 7411.000000
1404.723145 8190.000000
1406.605103 8821.000000
1408.486450 8660.000000
1410.367065 7951.000000
1412.246948 9161.000000
1414.126221 7993.000000
1416.004761 8706.000000
1417.882690 8060.000000
1419.759766 8590.000000
1421.636230 7925.000000
1423.512085 7197.000000
1425.387085 8346.000000
1427.261475 8594.000000
1429.135254 7442.000000
1431.008179 7735.000000
1432.880493 8932.000000
1434.752197 8779.000000
1436.623047 7285.000000
1438.493408 8413.000000
1440.362915 8632.000000
1442.231812 8864.000000
1444.099976 8647.000000
1445.967529 8353.000000
1447.834229 9128.000000
1449.700439 8770.000000
1451.565796 9351.000000
1453.430542 7659.000000
1455.294678 8684.000000
1457.158081 8621.000000
1459.020752 8096.000000
1460.882690 9470.000000
1462.744019 8839.000000
1464.604614 9072.000000
1466.464600 8985.000000
1468.323853 8558.000000
1470.182373 8877.000000
1472.040283 9216.000000
1473.897461 9126.000000
1475.754028 9208.000000
1477.609863 8498.000000
1479.464966 8446.000000
1481.319458 9456.000000
1483.173218 9124.000000
1485.026367 9456.000000
1486.878784 8770.000000
1488.730469 9022.000000
1490.581543 8337.000000
1492.432007 9588.000000
1494.281616 8446.000000
1496.130615 8896.000000
1497.979004 7772.000000
1499.826660 8879.000000
1501.673584 9561.000000
1503.519897 9385.000000
1505.365479 9352.000000
1507.210449 8455.000000
1509.054688 9269.000000
1510.898193 9139.000000
1512.741089 9648.000000
1514.583374 9398.000000
1516.424927 9068.000000
1518.265747 9832.000000
1520.105957 8889.000000
1521.945435 8885.000000
1523.784180 9082.000000
1525.622314 9164.000000
1527.459839 9291.000000
1529.296631 9706.000000
1531.132690 9218.000000
1532.968140 8868.000000
1534.802979 8750.000000
1536.636963 9533.000000
1538.470459 8937.000000
1540.303101 8706.000000
1542.135254 9374.000000
1543.966553 9118.000000
1545.797241 8524.000000
1547.627319 8823.000000
1549.456665 9538.000000
1551.285400 9414.000000
1553.113403 10042.000000
1554.940796 9209.000000
1556.767456 8608.000000
1558.593384 9692.000000
1560.418701 9362.000000
1562.243408 9539.000000
1564.067383 9766.000000
1565.890625 9956.000000
1567.713257 9459.000000
1569.535278 9657.000000
1571.356567 9576.000000
1573.177124 9974.000000
1574.997070 9118.000000
1576.816406 9986.000000
1578.635010 8818.000000
1580.453003 10027.000000
1582.270264 9562.000000
1584.086792 9860.000000
1585.902710 8855.000000
1587.718018 8122.000000
1589.532593 9048.000000
1591.346558 9331.000000
1593.159790 9775.000000
1594.972412 8909.000000
1596.784302 10652.000000
1598.595581 10466.000000
1600.406128 9360.000000
1602.216064 8758.000000
1604.025391 10183.000000
1605.833862 9925.000000
1607.641846 9561.000000
1609.449097 9638.000000
1611.255737 10487.000000
1613.061646 10208.000000
1614.866821 8980.000000
1616.671509 10534.000000
1618.475464 8973.000000
1620.278687 9285.000000
1622.081299 9304.000000
1623.883179 10081.000000
1625.684448 10392.000000
1627.485107 10400.000000
1629.285034 9230.000000
1631.084351 9837.000000
1632.882935 10110.000000
1634.680908 9450.000000
1636.478271 8649.000000
1638.274902 9962.000000
1640.070801 10058.000000
1641.866211 9478.000000
1643.660767 10422.000000
1645.454834 9843.000000
1647.248169 10277.000000
1649.040771 9984.000000
1650.832764 9608.000000
1652.624146 10436.000000
1654.414917 9719.000000
1656.204834 10061.000000
1657.994263 10011.000000
1659.782959 10050.000000
1661.571045 10596.000000
1663.358398 9358.000000
1665.145142 10096.000000
1666.931274 9603.000000
1668.716675 10733.000000
1670.501465 10738.000000
1672.285522 10040.000000
1674.068970 10591.000000
1675.851807 10423.000000
1677.633911 10243.000000
1679.415405 9983.000000
1681.196167 10142.000000
1682.976440 10932.000000
1684.755859 9138.000000
1686.534790 9472.000000
1688.312988 9830.000000
1690.090454 10561.000000
1691.867432 10254.000000
1693.643677 10496.000000
1695.419189 9909.000000
1697.194214 10391.000000
1698.968384 10145.000000
1700.742065 10501.000000
1702.515015 10552.000000
1704.287354 9407.000000
1706.058960 9305.000000
1707.830078 10295.000000
1709.600342 10355.000000
1711.370117 10513.000000
1713.139160 10016.000000
1714.907593 9940.000000
1716.675293 10133.000000
1718.442383 10089.000000
1720.208862 8749.000000
1721.974609 9472.000000
1723.739746 9240.000000
1725.504272 10607.000000
1727.268188 10402.000000
1729.031372 9974.000000
1730.793945 9886.000000
1732.555786 9948.000000
1734.317017 10283.000000
1736.077637 10701.000000
1737.837646 9300.000000
1739.596924 10777.000000
1741.355591 9781.000000
1743.113525 10921.000000
1744.870972 9091.000000
1746.627686 11066.000000
1748.383789 10728.000000
1750.139160 9229.000000
1751.893921 9579.000000
1753.648071 10690.000000
1755.401489 10761.000000
1757.154419 10762.000000
1758.906616 10407.000000
1760.658081 10220.000000
1762.409058 10455.000000
1764.159302 10061.000000
1765.908936 10197.000000
1767.657837 11150.000000
1769.406128 9975.000000
1771.153809 10809.000000
1772.900879 10729.000000
1774.647217 10906.000000
1776.393066 10802.000000
1778.138184 10755.000000
1779.882568 9225.000000
1781.626465 9717.000000
1783.369629 9574.000000
1785.112061 10243.000000
1786.854004 9169.000000
1788.595215 10215.000000
1790.335815 10162.000000
1792.075806 9608.000000
1793.815186 10700.000000
1795.553833 9903.000000
1797.291870 10425.000000
1799.029297 9867.000000
1800.766113 9862.000000
1802.502197 10456.000000
1804.237671 10529.000000
1805.972534 10914.000000
1807.706787 9786.000000
1809.440308 9991.000000
1811.173218 10738.000000
1812.905518 9490.000000
1814.637207 10537.000000
1816.368164 10994.000000
1818.098511 9542.000000
1819.828247 10770.000000
1821.557373 10845.000000
1823.285889 10390.000000
1825.013672 11085.000000
1826.740845 10586.000000
1828.467407 10377.000000
1830.193359 10133.000000
1831.918579 10564.000000
1833.643311 10034.000000
1835.367310 10805.000000
1837.090698 9880.000000
1838.813354 9696.000000
1840.535522 10172.000000
1842.256958 10847.000000
1843.977783 10431.000000
1845.697998 10576.000000
1847.417603 10986.000000
1849.136597 10255.000000
1850.854858 10342.000000
1852.572510 10685.000000
1854.289551 10599.000000
1856.005981 9779.000000
1857.721680 10231.000000
1859.436890 9862.000000
1861.151367 11059.000000
1862.865234 11038.000000
1864.578491 10705.000000
1866.291138 10610.000000
1868.003052 9931.000000
1869.714355 9800.000000
1871.425171 10061.000000
1873.135254 10778.000000
1874.844727 10204.000000
1876.553467 9884.000000
1878.261719 9727.000000
1879.969238 9990.000000
1881.676147 10760.000000
1883.382568 10775.000000
1885.088135 9283.000000
1886.793213 10853.000000
1888.497681 9863.000000
1890.201416 9674.000000
1891.904663 10634.000000
1893.607178 10351.000000
1895.309082 11022.000000
1897.010376 10410.000000
1898.711060 9211.000000
1900.411011 10472.000000
1902.110474 11297.000000
1903.809204 10353.000000
1905.507324 9808.000000
1907.204956 10362.000000
1908.901855 10671.000000
1910.598022 9717.000000
1912.293701 10446.000000
1913.988770 10051.000000
1915.683105 9899.000000
1917.376953 9961.000000
1919.070068 9893.000000
1920.762573 9713.000000
1922.454468 9179.000000
1924.145752 9584.000000
1925.836426 9637.000000
1927.526489 10083.000000
1929.215820 10566.000000
1930.904663 10147.000000
1932.592773 10722.000000
1934.280273 10672.000000
1935.967285 10361.000000
1937.653564 9730.000000
1939.339233 10168.000000
1941.024292 10465.000000
1942.708618 10343.000000
1944.392456 10733.000000
1946.075684 10139.000000
1947.758179 10548.000000
1949.440186 10160.000000
1951.121460 9659.000000
1952.802246 9935.000000
1954.482300 10256.000000
1956.161743 9986.000000
1957.840576 10328.000000
1959.518799 10237.000000
1961.196411 9748.000000
1962.873413 9006.000000
1964.549805 10318.000000
1966.225586 10384.000000
1967.900635 9925.000000
1969.575195 9919.000000
1971.249023 9628.000000
1972.922363 9933.000000
1974.594971 9751.000000
1976.267090 10417.000000
1977.938477 9173.000000
1979.609253 10668.000000
1981.279541 9671.000000
1982.949097 9607.000000
1984.618042 10328.000000
1986.286377 10231.000000
1987.954102 9998.000000
1989.621216 10169.000000
1991.287720 9599.000000
1992.953613 9377.000000
1994.618896 10483.000000
1996.283569 10420.000000
1997.947632 10207.000000
1999.610962 9252.000000
2001.273804 9989.000000
2002.936035 9911.000000
2004.597656 8145.000000
2006.258545 10241.000000
2007.918945 10106.000000
2009.578735 10008.000000
2011.237793 9316.000000
2012.896362 9542.000000
2014.554321 8824.000000
2016.211548 9843.000000
2017.868286 9941.000000
2019.524414 10184.000000
2021.179810 10318.000000
2022.834717 9663.000000
2024.488892 9942.000000
2026.142578 10276.000000
2027.795532 10065.000000
2029.447998 9239.000000
2031.099854 8695.000000
2032.750977 9491.000000
2034.401611 8822.000000
2036.051514 9567.000000
2037.700928 8649.000000
2039.349731 9807.000000
2040.997803 10225.000000
2042.645386 9554.000000
2044.292236 8494.000000
2045.938599 9577.000000
2047.584351 10074.000000
2049.229492 10186.000000
2050.874023 8929.000000
2052.517822 9697.000000
2054.161133 10059.000000
2055.803711 10040.000000
2057.445801 8638.000000
2059.087402 10280.000000
2060.728271 9180.000000
2062.368408 9788.000000
2064.008057 8827.000000
2065.647217 9394.000000
2067.285645 8840.000000
2068.923340 10121.000000
2070.560547 9320.000000
2072.197266 10009.000000
2073.833252 8542.000000
2075.468750 9157.000000
2077.103516 9587.000000
2078.737793 9433.000000
2080.371338 9254.000000
2082.004395 10138.000000
2083.636719 9873.000000
2085.268555 10323.000000
2086.899658 9002.000000
2088.530273 9503.000000
2090.160156 9866.000000
2091.789551 9654.000000
2093.418457 10090.000000
2095.046631 8613.000000
2096.674316 9756.000000
2098.301270 9728.000000
2099.927490 9675.000000
2101.553223 9073.000000
2103.178467 9549.000000
2104.802979 9720.000000
2106.427002 10017.000000
2108.050537 8823.000000
2109.673096 9809.000000
2111.295410 9463.000000
2112.916992 9331.000000
2114.537842 9944.000000
2116.158203 9791.000000
2117.778076 9021.000000
2119.397217 9404.000000
2121.015869 9465.000000
2122.633789 9585.000000
2124.251221 8936.000000
2125.867920 9637.000000
2127.484131 9625.000000
2129.099854 9686.000000
2130.714844 9200.000000
2132.329102 9336.000000
2133.942871 9779.000000
2135.556152 9394.000000
2137.168701 9627.000000
2138.780762 8705.000000
2140.392090 8909.000000
2142.002930 9770.000000
2143.613281 9261.000000
2145.222900 9357.000000
2146.831787 8736.000000
2148.440430 9816.000000
2150.048096 9116.000000
2151.655518 8398.000000
2153.261963 10020.000000
2154.868164 9917.000000
2156.473633 8039.000000
2158.078369 8782.000000
2159.682617 9518.000000
2161.286377 8422.000000
2162.889404 8815.000000
2164.491943 9160.000000
2166.093994 9696.000000
2167.695312 8393.000000
2169.295898 10312.000000
2170.895996 9352.000000
2172.495605 8915.000000
2174.094482 9655.000000
2175.692871 9142.000000
2177.290771 7787.000000
2178.887939 8846.000000
2180.484375 8095.000000
2182.080322 8141.000000
2183.675781 8187.000000
2185.270752 7825.000000
2186.864746 9155.000000
2188.458496 8332.000000
2190.051514 8666.000000
2191.644043 7997.000000
2193.235840 8941.000000
2194.827148 9782.000000
2196.417725 8210.000000
2198.007812 7792.000000
2199.597412 7666.000000
2201.186279 7541.000000
2202.774658 8133.000000
2204.362305 8318.000000
2205.949463 8313.000000
2207.536133 8573.000000
2209.122070 8545.000000
2210.707520 7139.000000
2212.292236 8625.000000
2213.876465 8476.000000
2215.460205 7197.000000
2217.043213 8036.000000
2218.625732 8586.000000
2220.207520 8406.000000
2221.788818 8227.000000
2223.369629 9535.000000
2224.949707 8583.000000
2226.529053 9186.000000
2228.108154 8127.000000
2229.686523 9117.000000
2231.264160 8786.000000
2232.841553 9949.000000
2234.417969 9356.000000
2235.994141 9297.000000
2237.569580 8537.000000
2239.144287 8348.000000
2240.718750 8262.000000
2242.292236 7124.000000
2243.865479 8519.000000
2245.437988 8463.000000
2247.010010 8489.000000
2248.581299 9670.000000
2250.152100 8732.000000
2251.722168 8398.000000
2253.291992 7666.000000
2254.860840 8375.000000
2256.429443 8129.000000
2257.997314 8693.000000
2259.564453 7216.000000
2261.131348 7871.000000
2262.697266 7789.000000
2264.262939 7807.000000
2265.827881 7687.000000
2267.392334 7622.000000
2268.956055 7558.000000
2270.519287 8812.000000
2272.082031 9111.000000
2273.644043 9043.000000
2275.205566 7850.000000
2276.766357 9510.000000
2278.326660 9534.000000
2279.886475 8850.000000
2281.445801 7799.000000
2283.004395 7597.000000
2284.562256 7865.000000
2286.119873 8168.000000
2287.676514 7348.000000
2289.232910 8306.000000
2290.788574 7258.000000
2292.343750 7240.000000
2293.898438 7189.000000
2295.452393 7803.000000
2297.005615 8883.000000
2298.558594 8148.000000
2300.110840 7233.000000
2301.662598 7858.000000
2303.213623 8586.000000
2304.764160 7997.000000
2306.313965 8230.000000
2307.863525 8490.000000
2309.412354 8311.000000
2310.960449 8420.000000
2312.508057 7659.000000
2314.055176 8474.000000
2315.601807 8118.000000
2317.147705 8218.000000
2318.693115 8280.000000
2320.237793 7536.000000
2321.781982 7959.000000
2323.325684 8265.000000
2324.868652 7085.000000
2326.411133 7977.000000
2327.953125 8600.000000
2329.494385 7905.000000
2331.035156 6386.000000
2332.575439 7396.000000
2334.114990 6427.000000
2335.654053 6243.000000
2337.192627 6894.000000
2338.730469 7546.000000
2340.267822 8188.000000
2341.804688 8535.000000
2343.340820 8314.000000
2344.876465 6723.000000
2346.411621 7099.000000
2347.946045 6770.000000
2349.479980 8088.000000
2351.013428 6790.000000
2352.546143 7859.000000
2354.078369 8471.000000
2355.610107 6871.000000
2357.141113 7528.000000
2358.671631 7714.000000
2360.201416 7368.000000
2361.730957 6838.000000
2363.259766 7699.000000
2364.787842 7403.000000
2366.315674 8037.000000
2367.842773 7064.000000
2369.369141 7708.000000
2370.895264 7424.000000
2372.420654 7792.000000
2373.945557 7619.000000
2375.469727 7721.000000
2376.993408 7171.000000
2378.516602 7384.000000
2380.039062 7919.000000
2381.561035 8487.000000
2383.082520 7766.000000
2384.603516 6273.000000
2386.123779 7403.000000
2387.643555 6746.000000
2389.162598 7359.000000
2390.681396 7292.000000
2392.199219 6449.000000
2393.716797 6346.000000
2395.233643 7971.000000
2396.750000 7485.000000
2398.265869 7644.000000
2399.781006 7570.000000
2401.295654 7117.000000
2402.809814 7944.000000
2404.323486 7849.000000
2405.836426 7797.000000
2407.348877 6017.000000
2408.860596 6977.000000
2410.371826 7602.000000
2411.882568 8114.000000
2413.392822 7731.000000
2414.902344 7348.000000
2416.411377 7068.000000
2417.919922 6957.000000
2419.427734 5838.000000
2420.935303 6090.000000
2422.441895 6342.000000
2423.948242 7002.000000
2425.453857 7554.000000
2426.958984 7114.000000
2428.463623 7029.000000
2429.967529 6306.000000
2431.470947 6508.000000
2432.973877 7635.000000
2434.476318 7217.000000
2435.978027 7147.000000
2437.479248 6789.000000
2438.979736 6925.000000
2440.479980 6004.000000
2441.979492 7156.000000
2443.478271 7031.000000
2444.976807 5523.000000
2446.474609 5641.000000
2447.971924 6930.000000
2449.468506 7557.000000
2450.964844 7987.000000
2452.460449 7186.000000
2453.955566 7250.000000
2455.449951 6934.000000
2456.943848 6250.000000
2458.437256 7196.000000
2459.930176 7114.000000
2461.422363 6530.000000
2462.914062 6559.000000
2464.405273 6343.000000
2465.895996 6187.000000
2467.385986 6326.000000
2468.875488 6616.000000
2470.364502 7345.000000
2471.852783 6537.000000
2473.340576 7728.000000
2474.827881 7308.000000
2476.314697 7094.000000
2477.800781 6881.000000
2479.286377 6730.000000
2480.771484 8046.000000
2482.256104 7345.000000
2483.739990 7967.000000
2485.223389 8086.000000
2486.706299 8205.000000
2488.188477 7160.000000
2489.670166 6699.000000
2491.151367 6239.000000
2492.632080 7428.000000
2494.112305 6167.000000
2495.591797 7274.000000
2497.070801 6898.000000
2498.549072 6934.000000
2500.027100 7449.000000
2501.504395 6812.000000
2502.981201 7134.000000
2504.457275 6508.000000
2505.933105 6834.000000
2507.408203 7160.000000
2508.882812 7573.000000
2510.356689 6606.000000
2511.830322 7254.000000
2513.303223 6012.000000
2514.775635 5653.000000
2516.247314 7672.000000
2517.718750 7468.000000
2519.189453 7126.000000
2520.659668 6558.000000
2522.129150 7712.000000
2523.598389 6517.000000
2525.066895 6935.000000
2526.534912 6293.000000
2528.002197 6199.000000
2529.469238 6106.000000
2530.935547 5453.000000
2532.401367 7089.000000
2533.866455 6467.000000
2535.331299 7559.000000
2536.795410 6833.000000
2538.259033 6204.000000
2539.722168 6665.000000
2541.184570 6859.000000
2542.646484 5315.000000
2544.107910 6008.000000
2545.568848 5445.000000
2547.029053 6125.000000
2548.489014 5466.000000
2549.948242 6671.000000
2551.406982 6720.000000
2552.864990 6316.000000
2554.322754 7366.000000
2555.779785 6060.000000
2557.236328 5691.000000
2558.692139 6128.000000
2560.147705 6322.000000
2561.602539 7035.000000
2563.056885 6898.000000
2564.510498 6525.000000
2565.963867 5785.000000
2567.416504 5623.000000
2568.868652 5462.000000
2570.320312 5381.000000
2571.771484 7082.000000
2573.221924 7354.000000
2574.671875 5581.000000
2576.121338 5571.000000
2577.570312 5705.000000
2579.018799 6497.000000
2580.466553 7162.000000
2581.913818 8002.000000
2583.360596 7022.000000
2584.806641 6543.000000
2586.252441 6601.000000
2587.697510 6698.000000
2589.142090 5271.000000
2590.586182 5381.000000
2592.029541 4809.000000
2593.472656 5912.000000
2594.915039 4916.000000
2596.356934 5853.000000
2597.798340 6276.000000
2599.239014 5697.000000
2600.679199 5286.000000
2602.118896 4789.000000
2603.558105 6554.000000
2604.996826 5993.000000
2606.434814 7149.000000
2607.872559 7161.000000
2609.309570 5548.000000
2610.746094 6661.000000
2612.181885 6834.000000
2613.617432 6920.000000
2615.052246 6984.000000
2616.486572 6762.000000
2617.920410 6540.000000
2619.353760 6480.000000
2620.786377 6191.000000
2622.218506 6227.000000
2623.650146 6759.000000
2625.081299 6920.000000
2626.511963 6963.000000
2627.941895 5053.000000
2629.371338 5687.000000
2630.800537 6924.000000
2632.228760 6677.000000
2633.656738 5376.000000
2635.084229 5801.000000
2636.510986 6764.000000
2637.937256 5879.000000
2639.363037 6594.000000
2640.788330 6971.000000
2642.212891 6891.000000
2643.636963 5366.000000
2645.060791 5718.000000
2646.483887 5653.000000
2647.906250 5939.000000
2649.328369 6288.000000
2650.749756 7023.000000
2652.170898 7044.000000
2653.591309 6807.000000
2655.011230 5356.000000
2656.430420 5118.000000
2657.849365 5462.000000
2659.267578 5886.000000
2660.685303 5839.000000
2662.102539 5678.000000
2663.519287 5346.000000
2664.935547 5138.000000
2666.351074 6371.000000
2667.766113 5662.000000
2669.180664 5848.000000
2670.594727 4630.000000
2672.008301 6111.000000
2673.421143 6538.000000
2674.833740 6965.000000
2676.245605 7362.000000
2677.656982 7005.000000
2679.067871 6041.000000
2680.478271 6036.000000
2681.887939 6031.000000
2683.297119 6269.000000
2684.706055 7015.000000
2686.114258 6872.000000
2687.521973 6434.000000
2688.928955 5409.000000
2690.335693 5894.000000
2691.741699 6379.000000
2693.147217 6473.000000
2694.552246 6786.000000
2695.956787 5494.000000
2697.360840 6705.000000
2698.764160 6712.000000
2700.167236 6629.000000
2701.569580 5392.000000
2702.971436 6153.000000
2704.372803 6054.000000
2705.773682 5242.000000
2707.173828 5086.000000
2708.573730 5610.000000
2709.972900 6135.000000
2711.371582 6313.000000
2712.769775 6470.000000
2714.167480 7318.000000
2715.564453 4896.000000
2716.961182 5273.000000
2718.357178 5650.000000
2719.752686 5318.000000
2721.147705 6331.000000
2722.542236 6710.000000
2723.936279 6044.000000
2725.329834 6492.000000
2726.722656 7255.000000
2728.114990 6076.000000
2729.507080 6220.000000
2730.898438 5801.000000
2732.289062 6375.000000
2733.679443 5073.000000
2735.069336 5382.000000
2736.458496 4553.000000
2737.847168 5755.000000
2739.235352 5845.000000
2740.623047 5799.000000
2742.010254 6347.000000
2743.396973 5167.000000
2744.783203 6505.000000
2746.168701 6154.000000
2747.553711 6209.000000
2748.938232 5154.000000
2750.322266 5741.000000
2751.705811 5919.000000
2753.088867 6156.000000
2754.471436 7184.000000
2755.853271 6168.000000
2757.234863 6122.000000
2758.615723 6076.000000
2759.996094 6056.000000
2761.375977 4776.000000
2762.755371 5662.000000
2764.134033 6701.000000
2765.512451 6042.000000
2766.890137 6332.000000
2768.267578 6183.000000
2769.644287 4866.000000
2771.020508 5099.000000
2772.396240 5796.000000
2773.771240 6128.000000
2775.145996 7041.000000
2776.520264 5927.000000
2777.893799 6293.000000
2779.266846 4719.000000
2780.639648 4707.000000
2782.011719 6131.000000
2783.383057 6647.000000
2784.754150 6311.000000
2786.124756 5975.000000
2787.494873 6931.000000
2788.864258 5622.000000
2790.233154 6226.000000
2791.601807 5626.000000
2792.969727 5489.000000
2794.337158 5352.000000
2795.703857 3919.000000
2797.070312 4253.000000
2798.436279 5014.000000
2799.801514 5775.000000
2801.166504 4918.000000
2802.530762 5178.000000
2803.894531 5511.000000
2805.257812 5844.000000
2806.620605 6132.000000
2807.982910 5066.000000
2809.344727 5533.000000
2810.705811 6001.000000
2812.066650 6141.000000
2813.426758 6911.000000
2814.786621 5514.000000
2816.145752 6049.000000
2817.504395 6450.000000
2818.862549 5707.000000
2820.220215 5593.000000
2821.577393 6017.000000
2822.933838 6257.000000
2824.290039 5394.000000
2825.645508 6111.000000
2827.000732 6079.000000
2828.355225 6097.000000
2829.709229 6116.000000
2831.062744 6210.000000
2832.415771 5784.000000
2833.768311 5359.000000
2835.120361 5886.000000
2836.471924 6251.000000
2837.822754 6146.000000
2839.173340 5528.000000
2840.523193 5440.000000
2841.872803 5353.000000
2843.221680 5173.000000
2844.570068 4069.000000
2845.917969 3296.000000
2847.265381 4029.000000
2848.612305 4183.000000
2849.958740 4494.000000
2851.304443 4806.000000
2852.649902 5707.000000
2853.994629 5981.000000
2855.339111 5140.000000
2856.682861 5605.000000
2858.026123 5720.000000
2859.368896 4912.000000
2860.711426 5196.000000
2862.053223 6691.000000
2863.394287 6791.000000
2864.735107 6026.000000
2866.075439 5687.000000
2867.415283 4169.000000
2868.754395 4743.000000
2870.093262 5662.000000
2871.431396 5041.000000
2872.769043 4867.000000
2874.106445 5309.000000
2875.443115 7213.000000
2876.779297 6561.000000
2878.114990 6948.000000
2879.450195 5556.000000
2880.784912 5945.000000
2882.119141 3661.000000
2883.452637 5888.000000
2884.785889 5894.000000
2886.118652 5901.000000
2887.450684 5825.000000
2888.782227 6567.000000
2890.113525 6281.000000
2891.444092 5460.000000
2892.774170 5245.000000
2894.103760 5031.000000
2895.433105 4870.000000
2896.761719 5384.000000
2898.089844 5282.000000
2899.417236 5805.000000
2900.744385 6639.000000
2902.071045 5255.000000
2903.397217 6368.000000
2904.722656 6556.000000
2906.047852 5259.000000
2907.372314 5031.000000
2908.696533 4414.000000
2910.020020 4229.000000
2911.343018 6124.000000
2912.665771 5878.000000
2913.987793 4207.000000
2915.309326 4820.000000
2916.630371 4934.000000
2917.950928 5049.000000
2919.270996 6620.000000
2920.590576 6318.000000
2921.909668 6016.000000
2923.228027 6787.000000
2924.546143 7135.000000
2925.863770 6571.000000
2927.180664 4945.000000
2928.497314 5311.000000
2929.813477 5493.000000
2931.128906 5859.000000
2932.443848 4710.000000
2933.758545 4726.000000
2935.072510 6230.000000
2936.385986 5878.000000
2937.699219 5322.000000
2939.011719 6011.000000
2940.323730 5785.000000
2941.635254 5541.000000
2942.946289 5786.000000
2944.256836 4895.000000
2945.566895 5190.000000
2946.876465 5497.000000
2948.185547 5657.000000
2949.493896 4895.000000
2950.802002 5066.000000
2952.109619 4828.000000
2953.416504 4379.000000
2954.723145 3845.000000
2956.029297 4621.000000
2957.334717 5922.000000
2958.639893 4310.000000
2959.944336 4148.000000
2961.248535 6006.000000
2962.552002 5309.000000
2963.854980 5910.000000
2965.157715 5397.000000
2966.459717 6056.000000
2967.761230 4453.000000
2969.062256 5429.000000
2970.363037 5029.000000
2971.663086 5356.000000
2972.962646 5121.000000
2974.261719 5076.000000
2975.560303 4680.000000
2976.858398 3948.000000
2978.156006 5278.000000
2979.453125 5090.000000
2980.749756 4903.000000
2982.045898 5064.000000
2983.341553 4146.000000
2984.636475 4785.000000
2985.931152 4475.000000
2987.225342 4516.000000
2988.519043 4557.000000
2989.812256 4456.000000
2991.104736 4659.000000
2992.396973 3177.000000
2993.688721 4930.000000
2994.979736 4998.000000
2996.270508 5156.000000
2997.560547 4564.000000
2998.850342 4240.000000
3000.139648 3917.000000
3001.428223 4487.000000
3002.716553 5058.000000
3004.004150 5591.000000
3005.291504 4878.000000
3006.578125 5223.000000
3007.864502 3562.000000
3009.150146 4663.000000
3010.435303 5323.000000
3011.720215 5984.000000
3013.004395 5641.000000
3014.288330 5038.000000
3015.571533 4436.000000
3016.854248 5756.000000
3018.136719 5349.000000
3019.418457 4612.000000
3020.699707 4751.000000
3021.980713 6000.000000
3023.260986 5880.000000
3024.540771 5288.000000
3025.820068 4696.000000
3027.099121 5543.000000
3028.377441 4912.000000
3029.655273 3242.000000
3030.932861 4790.000000
3032.209717 4553.000000
3033.486084 4317.000000
3034.761963 5647.000000
3036.037354 5315.000000
3037.312500 5075.000000
3038.586914 4836.000000
3039.860840 5502.000000
3041.134277 4352.000000
3042.407471 4947.000000
3043.679932 6315.000000
3044.951904 6278.000000
3046.223389 6056.000000
3047.494385 5701.000000
3048.765137 5347.000000
3050.035156 5667.000000
3051.304688 4998.000000
3052.573730 5019.000000
3053.842529 5040.000000
3055.110596 4411.000000
3056.378174 3783.000000
3057.645264 4190.000000
3058.912109 4597.000000
3060.178223 4180.000000
3061.443848 5125.000000
3062.708984 5990.000000
3063.973877 4973.000000
3065.238037 5675.000000
3066.501709 5850.000000
3067.765137 4926.000000
3069.027832 5868.000000
3070.290039 5845.000000
3071.552002 4726.000000
3072.813232 4720.000000
3074.073975 4714.000000
3075.334473 5093.000000
3076.594238 4737.000000
3077.853760 3235.000000
3079.112549 3323.000000
3080.371094 4066.000000
3081.628906 5229.000000
3082.886475 4417.000000
3084.143311 5571.000000
3085.399902 4405.000000
3086.655762 5781.000000
3087.911377 5748.000000
3089.166260 5320.000000
3090.420898 5477.000000
3091.675049 5509.000000
3092.928467 4729.000000
3094.181641 3950.000000
3095.434326 4896.000000
3096.686279 4582.000000
3097.937988 4269.000000
3099.189209 4833.000000
3100.439941 4766.000000
3101.689941 5929.000000
3102.939697 6544.000000
3104.188965 5445.000000
3105.437744 5528.000000
3106.686035 4956.000000
3107.933838 4972.000000
3109.181152 4989.000000
3110.427979 4079.000000
3111.674316 4199.000000
3112.920166 4320.000000
3114.165527 4080.000000
3115.410400 3805.000000
3116.654785 3531.000000
3117.898926 4846.000000
3119.142334 5181.000000
3120.385254 3355.000000
3121.627930 4327.000000
3122.869873 3721.000000
3124.111328 4515.000000
3125.352539 5496.000000
3126.593018 4868.000000
3127.833252 5269.000000
3129.072754 4328.000000
3130.312012 3280.000000
3131.550537 3593.000000
3132.788818 3635.000000
3134.026611 3678.000000
3135.263672 4321.000000
3136.500488 4507.000000
3137.736816 4694.000000
3138.972656 4930.000000
3140.208008 4127.000000
3141.442871 3324.000000
3142.677246 3988.000000
3143.911133 3435.000000
3145.144531 3907.000000
3146.377441 3904.000000
3147.609863 5567.000000
3148.841797 5501.000000
3150.073486 5383.000000
3151.304443 4087.000000
3152.534912 4218.000000
3153.765137 3644.000000
3154.994629 4077.000000
3156.223877 4312.000000
3157.452393 3910.000000
3158.680664 3508.000000
3159.908203 4172.000000
3161.135498 3532.000000
3162.362305 4265.000000
3163.588623 3830.000000
3164.814453 3913.000000
3166.039795 4234.000000
3167.264648 4556.000000
3168.489014 4735.000000
3169.712891 4513.000000
3170.936279 5373.000000
3172.159180 4025.000000
3173.381592 4070.000000
3174.603760 2664.000000
3175.825195 3568.000000
3177.046387 4354.000000
3178.266846 4149.000000
3179.487061 4893.000000
3180.706543 5093.000000
3181.925781 4257.000000
3183.144531 5069.000000
3184.362793 4460.000000
3185.580322 3701.000000
3186.797607 4053.000000
3188.014404 3323.000000
3189.230957 3834.000000
3190.446777 3460.000000
3191.662109 3086.000000
3192.876953 2417.000000
3194.091309 2572.000000
3195.305420 4671.000000
3196.518799 3931.000000
3197.731934 4252.000000
3198.944580 4414.000000
3200.156494 3257.000000
3201.368164 3691.000000
3202.579346 2958.000000
3203.790039 3341.000000
3205.000244 3725.000000
3206.209961 3862.000000
3207.419189 4425.000000
3208.627930 3377.000000
3209.836182 4469.000000
3211.044189 3411.000000
3212.251465 4498.000000
3213.458496 3578.000000
3214.664795 4849.000000
3215.870850 4927.000000
3217.076416 3496.000000
3218.281250 3648.000000
3219.485840 3410.000000
3220.689941 2921.000000
3221.893555 3665.000000
3223.096680 4776.000000
3224.299561 4088.000000
3225.501709 3749.000000
3226.703369 3411.000000
3227.904785 3722.000000
3229.105469 4595.000000
3230.305908 4675.000000
3231.505615 4755.000000
3232.705078 4685.000000
3233.904053 3646.000000
3235.102539 3631.000000
3236.300537 3635.000000
3237.498047 3302.000000
3238.695068 2970.000000
3239.891846 3474.000000
3241.087891 3979.000000
3242.283691 4304.000000
3243.478760 4793.000000
3244.673584 2688.000000
3245.867676 2575.000000
3247.061523 4676.000000
3248.254883 4234.000000
3249.447754 4624.000000
3250.640137 4473.000000
3251.832275 3394.000000
3253.023682 2723.000000
3254.214600 4338.000000
3255.405273 3200.000000
3256.595215 2654.000000
3257.784912 2109.000000
3258.974121 2559.000000
3260.162842 4149.000000
3261.351074 4789.000000
3262.538818 3584.000000
3263.726074 3391.000000
3264.912842 4526.000000
3266.099121 3498.000000
3267.285156 3444.000000
3268.470459 3390.000000
3269.655518 3044.000000
3270.840088 3859.000000
3272.024170 4674.000000
3273.207764 5326.000000
3274.390869 4259.000000
3275.573486 4553.000000
3276.755615 4637.000000
3277.937256 2869.000000
3279.118652 3419.000000
3280.299561 3713.000000
3281.479736 3654.000000
3282.659668 4157.000000
3283.839111 4414.000000
3285.018066 4672.000000
3286.196533 4367.000000
3287.374512 4007.000000
3288.552246 3647.000000
3289.729248 3188.000000
3290.906006 2729.000000
3292.082031 2503.000000
3293.257812 2583.000000
3294.433105 3429.000000
3295.607910 4350.000000
3296.782227 5272.000000
3297.956055 4415.000000
3299.129639 2754.000000
3300.302490 1930.000000
3301.475098 2165.000000
3302.646973 2305.000000
3303.818604 4059.000000
3304.989746 3617.000000
3306.160400 4447.000000
3307.330566 3570.000000
3308.500244 4779.000000
3309.669678 4022.000000
3310.838379 3085.000000
3312.006836 4386.000000
3313.174805 5841.000000
3314.342041 3600.000000
3315.509033 2920.000000
3316.675537 4764.000000
3317.841797 4169.000000
3319.007324 4321.000000
3320.172607 4473.000000
3321.337158 3937.000000
3322.501465 3580.000000
3323.665283 3224.000000
3324.828613 3733.000000
3325.991455 2895.000000
3327.153809 1695.000000
3328.315674 1858.000000
3329.477295 3017.000000
3330.638184 3975.000000
3331.798828 3086.000000
3332.958984 3813.000000
3334.118652 2975.000000
3335.277832 3833.000000
3336.436523 4137.000000
3337.594971 4350.000000
3338.752686 1833.000000
3339.910156 2764.000000
3341.066895 2977.000000
3342.223389 3191.000000
3343.379395 1924.000000
3344.534912 1919.000000
3345.690186 2543.000000
3346.844727 2238.000000
3347.999023 3628.000000
3349.152588 5402.000000
3350.305908 4860.000000
3351.458740 2452.000000
3352.611084 3144.000000
3353.763184 3847.000000
3354.914551 2296.000000
3356.065430 4023.000000
3357.216064 5690.000000
3358.366211 5183.000000
3359.515869 4676.000000
3360.665039 3625.000000
3361.813721 1882.000000
3362.961914 2439.000000
3364.109863 4443.000000
3365.257324 2193.000000
3366.404053 2340.000000
3367.550537 2487.000000
3368.696533 3026.000000
3369.842285 3406.000000
3370.987305 3786.000000
3372.131836 4122.000000
3373.276123 3099.000000
3374.419922 4723.000000
3375.563232 3237.000000
3376.706055 3362.000000
3377.848389 3487.000000
3378.990234 3790.000000
3380.131836 4093.000000
3381.272949 4056.000000
3382.413330 2490.000000
3383.553467 2853.000000
3384.693359 5218.000000
3385.832520 5002.000000
3386.971191 2900.000000
3388.109619 3729.000000
3389.247559 2243.000000
3390.384766 2045.000000
3391.521729 3082.000000
3392.658447 4399.000000
3393.794434 3702.000000
3394.930176 2541.000000
3396.065186 2264.000000
3397.199951 1988.000000
3398.334229 2093.000000
3399.468018 1461.000000
3400.601318 2451.000000
3401.734375 4093.000000
3402.866699 4841.000000
3403.998779 2405.000000
3405.130371 3082.000000
3406.261475 2695.000000
3407.392090 3505.000000
3408.522461 2472.000000
3409.652100 2637.000000
3410.781494 3083.000000
3411.910400 2854.000000
3413.038818 3421.000000
3414.166748 3989.000000
3415.294434 4186.000000
3416.421387 4571.000000
3417.548096 3178.000000
3418.674316 4327.000000
3419.800049 3669.000000
3420.925293 3687.000000
3422.050049 2129.000000
3423.174561 2308.000000
3424.298584 2488.000000
3425.421875 2314.000000
3426.544922 2124.000000
3427.667725 2793.000000
3428.789795 3462.000000
3429.911621 3157.000000
3431.032715 1979.000000
3432.153564 2593.000000
3433.273926 2322.000000
3434.393799 2051.000000
3435.513428 2544.000000
3436.632324 3574.000000
3437.750977 2640.000000
3438.869141 2605.000000
3439.986816 2571.000000
3441.104004 2213.000000
3442.220947 2117.000000
3443.337158 1121.000000
3444.453125 1604.000000
3445.568604 2346.000000
3446.683594 3089.000000
3447.798340 3025.000000
3448.912354 2961.000000
3450.026123 2636.000000
3451.139404 3550.000000
3452.252197 3156.000000
3453.364502 3086.000000
3454.476318 3016.000000
3455.587891 2382.000000
3456.698975 2855.000000
3457.809570 3329.000000
3458.919678 3026.000000
3460.029297 2724.000000
3461.138672 2530.000000
3462.247314 2221.000000
3463.355713 1913.000000
3464.463623 2424.000000
3465.571045 2798.000000
3466.678223 3173.000000
3467.784668 2644.000000
3468.890869 2898.000000
3469.996582 3152.000000
3471.101807 3358.000000
3472.206787 2801.000000
3473.311035 4165.000000
3474.415039 2975.000000
3475.518555 3560.000000
3476.621582 2475.000000
3477.724121 3169.000000
3478.826416 3311.000000
3479.927979 1977.000000
3481.029297 2239.000000
3482.130127 3515.000000
3483.230469 2860.000000
3484.330566 2896.000000
3485.430176 2359.000000
3486.529053 2880.000000
3487.627686 2238.000000
3488.726074 2150.000000
3489.823730 1257.000000
3490.921143 1329.000000
3492.017822 2365.000000
3493.114258 4142.000000
3494.210449 4051.000000
3495.305908 1179.000000
3496.401123 3652.000000
3497.495605 3343.000000
3498.589844 4417.000000
3499.683838 3819.000000
3500.777100 2488.000000
3501.870117 2345.000000
3502.962402 1784.000000
3504.054443 370.000000
3505.146240 1932.000000
3506.237305 3497.000000
3507.327881 3088.000000
3508.418213 2759.000000
3509.508057 2431.000000
3510.597656 2638.000000
3511.686523 2117.000000
3512.775146 2753.000000
3513.863037 2217.000000
3514.950684 3048.000000
3516.038086 2497.000000
3517.124756 3184.000000
3518.211182 2563.000000
3519.297119 2730.000000
3520.382568 3025.000000
3521.467529 1630.000000
3522.552002 2879.000000
3523.636230 2260.000000
3524.719971 2490.000000
3525.803223 2851.000000
3526.885986 2839.000000
3527.968506 3146.000000
3529.050537 3454.000000
3530.132080 3361.000000
3531.213135 2674.000000
3532.293701 1285.000000
3533.374023 1614.000000
3534.453857 3957.000000
3535.533203 2884.000000
3536.612061 2031.000000
3537.690430 1910.000000
3538.768555 1790.000000
3539.846191 1781.000000
3540.923340 2771.000000
3542.000000 3383.000000
3543.076416 2165.000000
3544.152100 1657.000000
3545.227539 1150.000000
3546.302734 1138.000000
3547.377197 2229.000000
3548.451416 2364.000000
3549.525146 1520.000000
3550.598389 677.000000
3551.671143 818.000000
3552.743408 2033.000000
3553.815430 3312.000000
3554.886963 3425.000000
3555.958008 3228.000000
3557.028809 4284.000000
3558.098877 3412.000000
3559.168701 1717.000000
3560.238037 1534.000000
3561.306885 1351.000000
3562.375488 2117.000000
3563.443604 1640.000000
3564.511230 3160.000000
3565.578369 2623.000000
3566.645020 2915.000000
3567.711426 2857.000000
3568.777344 1625.000000
3569.842773 1552.000000
3570.907715 1181.000000
3571.972412 2859.000000
3573.036621 1841.000000
3574.100342 1775.000000
3575.163574 3299.000000
3576.226318 2324.000000
3577.288818 3059.000000
3578.350830 1742.000000
3579.412354 1154.000000
3580.473633 1660.000000
3581.534180 2412.000000
3582.594482 3004.000000
3583.654297 1613.000000
3584.713867 2690.000000
3585.772705 2487.000000
3586.831299 2284.000000
3587.889404 2838.000000
3588.947266 3392.000000
3590.004395 3128.000000
3591.061279 2198.000000
3592.117676 1269.000000
3593.173584 1639.000000
3594.229248 2009.000000
3595.284180 2282.000000
3596.338867 2035.000000
3597.393311 1360.000000
3598.447021 1348.000000
3599.500488 1545.000000
3600.553467 1637.000000
3601.605957 3149.000000
3602.657959 1389.000000
3603.709717 736.000000
3604.760986 2739.000000
3605.811768 182.000000
3606.862061 1734.000000
3607.912109 1570.000000
3608.961670 1624.000000
3610.010742 1679.000000
3611.059326 1032.000000
3612.107666 2227.000000
3613.155518 2374.000000
3614.202881 2522.000000
3615.249756 1778.000000
3616.296387 1801.000000
3617.342529 1825.000000
3618.388184 1795.000000
3619.433350 2435.000000
3620.478271 3076.000000
3621.522705 3070.000000
3622.566650 1723.000000
3623.610107 2000.000000
3624.653320 1575.000000
3625.696045 1151.000000
3626.738281 1443.000000
3627.780029 1736.000000
3628.821533 2400.000000
3629.862305 2604.000000
3630.903076 1628.000000
3631.943115 1974.000000
3632.982910 1654.000000
3634.021973 1683.000000
3635.061035 1712.000000
3636.099365 1195.000000
3637.137451 515.000000
3638.175049 1263.000000
3639.212158 275.000000
3640.248779 1326.000000
3641.285156 560.000000
3642.321045 553.000000
3643.356445 546.000000
3644.391357 1059.000000
3645.426025 1573.000000
3646.460205 2096.000000
3647.493896 1845.000000
3648.527344 920.000000
3649.560303 1303.000000
3650.592773 1597.000000
3651.624756 1818.000000
3652.656250 1650.000000
3653.687500 950.000000
3654.718262 1237.000000
3655.748779 1087.000000
3656.778564 3010.000000
3657.808105 3614.000000
3658.837158 824.000000
3659.865967 1818.000000
3660.894043 1944.000000
3661.921875 1524.000000
3662.949219 2374.000000
3663.976318 1493.000000
3665.002686 1457.000000
3666.028809 1440.000000
3667.054688 384.000000
3668.079834 1245.000000
3669.104736 1956.000000
3670.129150 819.000000
3671.153076 1576.000000
3672.176758 1806.000000
3673.199951 2037.000000
3674.222656 1716.000000
3675.245117 1472.000000
3676.266846 345.000000
3677.288330 516.000000
3678.309326 358.000000
3679.330078 200.000000
3680.350342 44.000000
3681.370117 2452.000000
3682.389404 2817.000000
3683.408447 992.000000
3684.427002 1407.000000
3685.445068 1091.000000
3686.462646 1680.000000
3687.479980 2270.000000
3688.496826 2141.000000
3689.513184 1865.000000
3690.529297 1647.000000
3691.544922 1429.000000
3692.560059 2014.000000
3693.574707 2599.000000
3694.589111 2086.000000
3695.603027 1132.000000
3696.616455 1620.000000
3697.629395 1373.000000
3698.642090 1937.000000
3699.654297 2158.000000
3700.666260 1646.000000
3701.677490 1394.000000
3702.688477 1142.000000
3703.698975 768.000000
3704.709229 890.000000
3705.718994 1012.000000
3706.728271 736.000000
3707.737061 809.000000
3708.745605 2046.000000
3709.753662 1366.000000
3710.761230 686.000000
3711.768311 1018.000000
3712.775146 1817.000000
3713.781494 2616.000000
3714.787354 2122.000000
3715.792969 1629.000000
3716.798096 1400.000000
3717.802734 1172.000000
3718.807129 1375.000000
3719.811035 1579.000000
3720.814453 1276.000000
3721.817383 625.000000
3722.820068 -65.000000
3723.822266 -51.000000
3724.823975 1628.000000
3725.825195 864.000000
3726.826172 1450.000000
3727.826660 901.000000
3728.826904 1258.000000
3729.826416 568.000000
3730.825684 673.000000
3731.824707 1372.000000
3732.822998 1104.000000
3733.821045 2111.000000
3734.818604 1459.000000
3735.815918 1006.000000
3736.812744 90.000000
3737.809082 290.000000
3738.804932 491.000000
3739.800537 389.000000
3740.795654 287.000000
3741.790283 315.000000
3742.784668 1784.000000
3743.778320 1636.000000
3744.771973 815.000000
3745.764893 970.000000
3746.757568 1213.000000
3747.749756 163.000000
3748.741455 615.000000
3749.732910 1470.000000
3750.723877 1200.000000
3751.714355 931.000000
3752.704590 438.000000
3753.694336 2599.000000
3754.683594 1156.000000
3755.672363 1063.000000
3756.660889 970.000000
3757.648926 939.000000
3758.636719 639.000000
3759.623779 894.000000
3760.610596 560.000000
3761.597168 725.000000
3762.583008 622.000000
3763.568604 815.000000
3764.553711 1008.000000
3765.538574 1017.000000
3766.522949 1469.000000
3767.506836 1921.000000
3768.490234 1995.000000
3769.473389 1203.000000
3770.456055 411.000000
3771.438477 -270.000000
3772.420166 22.000000
3773.401611 315.000000
3774.382812 473.000000
3775.363281 951.000000
3776.343506 328.000000
3777.323486 903.000000
3778.302734 190.000000
3779.281738 356.000000
3780.260254 523.000000
3781.238525 1700.000000
3782.216309 2017.000000
3783.193604 358.000000
3784.170410 1223.000000
3785.146973 105.000000
3786.123047 227.000000
3787.098877 595.000000
3788.073975 964.000000
3789.049072 782.000000
3790.023438 1153.000000
3790.997559 1524.000000
3791.971191 821.000000
3792.944336 1013.000000
3793.917236 269.000000
3794.889648 -8.000000
3795.861572 360.000000
3796.833008 728.000000
3797.804199 -28.000000
3798.775146 326.000000
3799.745361 680.000000
3800.715332 693.000000
3801.684814 -193.000000
3802.654053 304.000000
3803.622803 1307.000000
3804.591064 170.000000
3805.558838 1035.000000
3806.526367 1077.000000
3807.493408 863.000000
3808.460205 649.000000
3809.426514 666.000000
3810.392334 1324.000000
3811.357666 637.000000
3812.322754 1156.000000
3813.287354 199.000000
3814.251709 1004.000000
3815.215332 427.000000
3816.178955 -149.000000
3817.141846 237.000000
3818.104492 410.000000
3819.066650 583.000000
3820.028320 563.000000
3820.989746 843.000000
3821.950684 1122.000000
3822.911377 31.000000
3823.871338 393.000000
3824.831055 373.000000
3825.790527 554.000000
3826.749268 172.000000
3827.708008 908.000000
3828.666016 751.000000
3829.623779 594.000000
3830.581055 1300.000000
3831.537842 2180.000000
3832.494385 452.000000
3833.450439 1644.000000
3834.406006 1625.000000
3835.361328 399.000000
3836.316162 1158.000000
3837.270752 711.000000
3838.224609 742.000000
3839.178223 1191.000000
3840.131592 -102.000000
3841.084473 1228.000000
3842.036865 -68.000000
3842.988770 47.000000
3843.940430 163.000000
3844.891602 -30.000000
3845.842285 200.000000
3846.792725 431.000000
3847.742676 358.000000
3848.692383 695.000000
3849.641602 688.000000
3850.590332 190.000000
3851.538574 857.000000
3852.486572 1524.000000
3853.434082 2056.000000
3854.381348 1414.000000
3855.328125 1197.000000
3856.274414 359.000000
3857.220459 475.000000
3858.166016 283.000000
3859.111084 -249.000000
3860.055664 -244.000000
3861.000000 811.000000
3861.944092 -4.000000
3862.887451 320.000000
3863.830566 566.000000
3864.773438 -96.000000
3865.715576 -609.000000
3866.657471 -1122.000000
3867.599121 -242.000000
3868.540039 433.000000
3869.480713 1108.000000
3870.421143 624.000000
3871.361084 141.000000
3872.300537 128.000000
3873.239502 704.000000
3874.178223 266.000000
3875.116455 1212.000000
3876.054443 1144.000000
3876.991943 1158.000000
3877.928955 177.000000
3878.865479 -769.000000
3879.801758 1160.000000
3880.737793 1217.000000
3881.673096 -13.000000
3882.608154 240.000000
3883.542969 -57.000000
3884.477051 -111.000000
3885.410889 987.000000
3886.344482 344.000000
3887.277588 147.000000
3888.210205 -49.000000
3889.142334 250.000000
3890.074219 696.000000
3891.005615 1143.000000
3891.936768 1189.000000
3892.867432 314.000000
3893.797607 763.000000
3894.727295 563.000000
3895.656738 364.000000
3896.585938 650.000000
3897.514648 67.000000
3898.442871 1101.000000
3899.370605 1266.000000
3900.298096 1606.000000
3901.225098 -550.000000
3902.151611 -467.000000
3903.077881 -384.000000
3904.003906 2.000000
3904.929199 389.000000
3905.854248 767.000000
3906.778809 1017.000000
3907.703125 582.000000
3908.626953 646.000000
3909.550537 711.000000
3910.473389 56.000000
3911.396240 -598.000000
3912.318359 -242.000000
3913.240234 -604.000000
3914.161621 519.000000
3915.082764 105.000000
3916.003418 275.000000
3916.923584 -32.000000
3917.843506 -101.000000
3918.762939 -170.000000
3919.681885 -4.000000
3920.600586 1192.000000
3921.518799 1017.000000
3922.436768 -643.000000
3923.354248 -324.000000
3924.271240 -677.000000
3925.187988 301.000000
3926.104248 -464.000000
3927.020020 -418.000000
3927.935547 -918.000000
3928.850586 -470.000000
3929.765381 -358.000000
3930.679688 -387.000000
3931.593506 -252.000000
3932.506836 -126.000000
3933.419922 -18.000000
3934.332764 103.000000
3935.245117 224.000000
3936.156982 -510.000000
3937.068359 -98.000000
3937.979492 314.000000
3938.890137 197.000000
3939.800537 -152.000000
3940.710449 -502.000000
3941.619873 357.000000
3942.529053 634.000000
3943.437744 -561.000000
3944.346191 447.000000
3945.254150 -18.000000
3946.161621 -348.000000
3947.068848 899.000000
3947.975586 717.000000
3948.881836 536.000000
3949.787842 565.000000
3950.693359 47.000000
3951.598633 240.000000
3952.503418 434.000000
3953.407715 61.000000
3954.311768 -284.000000
3955.215332 626.000000
3956.118408 -482.000000
3957.021240 -336.000000
3957.923584 -478.000000
3958.825684 -526.000000
3959.727295 -327.000000
3960.628418 -916.000000
3961.529297 -33.000000
3962.429688 61.000000
3963.329834 156.000000
3964.229492 -836.000000
3965.128662 -831.000000
3966.027588 -827.000000
3966.926025 -142.000000
3967.823975 -752.000000
3968.721680 19.000000
3969.618896 90.000000
3970.515869 676.000000
3971.412354 529.000000
3972.308350 568.000000
3973.204102 434.000000
3974.099365 301.000000
3974.994385 -275.000000
3975.888916 -851.000000
3976.782959 -373.000000
3977.676758 -146.000000
3978.570068 81.000000
3979.462891 -158.000000
3980.355469 -55.000000
3981.247803 1121.000000
3982.139404 668.000000
3983.030762 346.000000
3983.921875 -428.000000
3984.812500 -139.000000
3985.702637 149.000000
3986.592529 -309.000000
3987.481934 -768.000000
3988.370850 -427.000000
3989.259521 -87.000000
3990.147705 -387.000000
3991.035645 -943.000000
3991.923096 -1499.000000
3992.810059 -553.000000
3993.696777 -743.000000
3994.583008 -933.000000
3995.468994 -924.000000
3996.354492 -403.000000
3997.239502 -381.000000
3998.124268 -360.000000
3999.008545 -707.000000
3999.892578 -373.000000
4000.776123 537.000000
4001.659180 376.000000
4002.541992 558.000000
4003.424316 -187.000000
4004.306396 -932.000000
4005.187988 -1640.000000
4006.069092 -880.000000
4006.949951 -250.000000
4007.830566 0.000000
4008.710449 -350.000000
4009.590088 -700.000000
4010.469482 34.000000
4011.348145 -474.000000
4012.226807 444.000000
4013.104736 -504.000000
4013.982422 554.000000
4014.859863 -351.000000
4015.736816 -1428.000000
4016.613281 -1240.000000
4017.489258 -1053.000000
4018.364990 -124.000000
4019.240479 -1662.000000
4020.115479 503.000000
4020.989990 665.000000
4021.864258 -558.000000
4022.738037 109.000000
4023.611328 332.000000
4024.484375 555.000000
4025.357178 745.000000
4026.229248 480.000000
4027.101074 -160.000000
4027.972656 -115.000000
4028.843750 220.000000
4029.714355 381.000000
4030.584717 -1310.000000
4031.454590 -356.000000
4032.324219 -60.000000
4033.193359 236.000000
4034.062012 181.000000
4034.930420 50.000000
4035.798340 -80.000000
4036.666016 -468.000000
4037.533203 -856.000000
4038.399902 -483.000000
4039.266357 696.000000
4040.132568 -204.000000
4040.998047 -1105.000000
4041.863281 -1156.000000
4042.728271 -404.000000
