300	646.108335
302	526.2617933
304	431.7572217
306	357.130025
308	297.8161517
310	251.9801167
312	216.7941383
314	186.474045
316	160.77892
318	143.4333817
320	127.7559183
322	115.228765
324	106.912455
326	101.15723
328	97.92399
330	93.8914
332	86.28176167
334	78.36024333
336	76.07501667
338	73.39590833
340	71.63492333
342	67.56602167
344	57.65425
346	53.94015
348	48.678245
350	45.95000167
352	50.34563833
354	48.903145
356	44.65761
358	42.37951
360	39.76401833
362	34.36417833
364	37.04630833
366	39.16816833
368	36.703065
370	36.02675833
372	39.19931167
374	38.21353
376	38.32407667
378	42.19548667
380	40.96208667
382	40.45510833
384	39.130745
386	39.55797333
388	44.44361667
390	41.706475
392	35.98882
394	34.79100167
396	39.89491167
398	45.30987833
400	38.84973
402	32.82177333
404	35.92833
406	38.36606
408	35.56506167
410	38.775455
412	44.151985
414	43.388865
416	46.45172667
418	46.10466167
420	42.09422333
422	38.25345833
424	34.53865167
426	32.43294
428	35.02925167
430	36.51608667
432	32.311615
434	35.06839667
436	39.29472333
438	36.80813
440	30.98000833
442	32.64018167
444	34.14989333
446	36.383075
448	37.81964333
450	33.482535
452	31.37069167
454	28.77190333
456	29.96377667
458	37.51983
460	38.29249167
462	33.19490167
464	32.03312833
466	35.76556167
468	36.23270167
470	39.09671167
472	39.47904833
474	39.02719167
476	41.48555167
478	36.27252
480	30.61915
482	33.681255
484	40.86623667
486	39.09074167
488	37.67024167
490	34.94465667
492	31.49564
494	34.71240167
496	41.87742333
498	45.36055333
500	47.96253333
502	54.20321333
504	56.82801333
506	51.612865
508	44.68265167
510	41.941845
512	43.76716333
514	51.56245
516	52.494095
518	49.22471833
520	52.16938833
522	51.989765
524	50.36075
526	50.21628
528	49.172575
530	43.87742167
532	42.32723
534	43.78548167
536	45.21699667
538	44.89613333
540	40.70727167
542	47.74171833
544	52.484025
546	42.69489
548	41.910535
550	42.99862833
552	44.901485
554	45.91485667
556	41.73073667
558	44.22517333
560	44.97413667
562	40.17946333
564	35.93312
566	33.39042833
568	30.83863
570	33.65119
572	39.83259667
574	38.64867333
576	41.30622333
578	43.36145167
580	41.93418333
582	42.53047667
584	44.48203333
586	44.05787167
588	42.13570167
590	37.95055
592	28.33355833
594	30.35435833
596	42.848975
598	52.30599833
600	50.52784
602	43.07683167
604	39.244215
606	40.49062667
608	41.93626167
610	41.278555
612	40.63581833
614	39.33918667
616	37.21349833
618	36.42805833
620	35.80724667
622	41.22807667
624	48.829225
626	46.82813167
628	36.07462833
630	29.05705167
632	35.91051333
634	48.74344667
636	46.54447833
638	36.57422
640	30.44207833
642	29.89624333
644	30.43031833
646	34.50335167
648	37.174425
650	33.66528167
652	30.185245
654	39.03693
656	41.72127333
658	42.06501
660	42.82613667
662	33.946085
664	35.04877
666	35.72484667
668	33.22134667
670	37.64657667
672	41.355535
674	39.34002333
676	34.90828833
678	32.1805
680	30.91711833
682	34.23424167
684	36.12189
686	35.87723667
688	37.95137333
690	34.93995167
692	31.41674167
694	30.12241833
696	29.49747833
698	29.63889167
700	29.68544
702	30.26693333
704	30.47622667
706	30.20653333
708	37.03360333
710	38.53187
712	40.26056667
714	54.16274667
716	63.2893
718	80.50284833
720	104.3614683
722	126.628845
724	148.314245
726	159.433645
728	171.7571467
730	185.2737983
732	185.8213017
734	181.9460817
736	174.9717417
738	164.3578133
740	152.905735
742	143.89413
744	131.4856117
746	117.342735
748	104.593875
750	92.29570333
752	81.73522167
754	74.68011833
756	69.6601
758	61.91621167
760	49.76164
762	46.760085
764	48.93604833
766	44.36638667
768	36.49526
770	43.90897
772	45.79191
774	35.10967333
776	29.79590167
778	27.97011167
780	31.74169667
782	38.10093
784	42.39828
786	43.6745
788	35.049465
790	39.42378833
792	52.84808333
794	43.80623667
796	37.71788
798	38.46310833
800	42.41491833
802	48.715355
804	53.69599333
806	53.09106167
808	49.56933833
810	47.06373
812	45.71548667
814	46.23330833
816	43.76919
818	38.27501167
820	35.03710333
822	34.45061167
824	33.87858167
826	34.17575167
828	37.88570333
830	43.57939
832	44.30793167
834	39.72652833
836	35.80881167
838	38.15388167
840	44.58979667
842	48.47221667
844	48.39133833
846	47.16126
848	46.40575833
850	50.05605833
852	47.19611167
854	38.78725333
856	43.49069167
858	50.77431333
860	48.64735667
862	42.02586333
864	41.75589833
866	42.53735333
868	44.62534
870	46.16362667
872	42.92306
874	36.768205
876	42.46050167
878	46.23120667
880	37.990035
882	29.770995
884	31.38040833
886	34.91774833
888	34.28181333
890	33.431575
892	37.44031
894	34.69813667
896	36.13535667
898	42.686995
900	37.80648167
902	42.47486667
904	45.86481833
906	40.45303333
908	37.66026
910	45.58553333
912	53.619695
914	49.60912667
916	37.76406167
918	34.34256667
920	32.096785
922	33.71569167
924	36.82442167
926	33.87257167
928	34.42205667
930	37.43174833
932	40.68148167
934	43.36315167
936	43.89896167
938	45.72434
940	45.96463
942	46.292935
944	48.10886833
946	32.49498833
948	39.97707667
950	56.65287167
952	44.22214333
954	44.555315
956	43.96616667
958	48.61426667
960	57.48240167
962	44.051395
964	42.06138167
966	44.38412667
968	45.202015
970	52.29790667
972	48.12699
974	51.45046
976	61.85294667
978	62.69034667
980	55.13654333
982	51.17306167
984	47.78663
986	44.57393667
988	47.68842333
990	45.09843833
992	39.51632667
994	35.03364
996	33.38161
998	38.72935
1000	44.17957667
1002	47.26018333
1004	46.288435
1006	39.92191833
1008	41.614825
1010	40.866045
1012	34.86782667
1014	33.09850833
1016	29.45907667
1018	27.41866
1020	35.920865
1022	49.05939
1024	45.38327167
1026	36.93296
1028	34.161925
1030	36.53852667
1032	39.02235167
1034	41.28704
1036	40.85167333
1038	46.78659667
1040	61.07164333
1042	62.34998667
1044	65.73054333
1046	78.593685
1048	94.82314
1050	106.4412333
1052	110.7528317
1054	126.239635
1056	154.997435
1058	182.4011233
1060	211.3538583
1062	247.66906
1064	298.3791833
1066	363.8468783
1068	441.18727
1070	553.3186833
1072	709.1571567
1074	914.5188083
1076	1193.549602
1078	1585.231057
1080	2068.233418
1082	2556.84733
1084	2920.30904
1086	3020.629967
1088	2788.95288
1090	2344.47343
1092	1833.310037
1094	1327.012188
1096	943.74945
1098	684.2040817
1100	504.44367
1102	380.25728
1104	302.4293767
1106	246.207185
1108	208.731535
1110	182.630675
1112	143.8043017
1114	123.153625
1116	117.594065
1118	107.8962383
1120	92.42556167
1122	87.64774667
1124	85.65141333
1126	84.845265
1128	85.37733167
1130	76.02227667
1132	73.03174833
1134	74.54185667
1136	74.97452333
1138	76.84678333
1140	69.59803
1142	61.195015
1144	54.17184
1146	45.54409667
1148	45.32761167
1150	53.5918
1152	55.163465
1154	50.21975833
1156	58.11897333
1158	57.18567333
1160	56.07172167
1162	60.04381
1164	56.547145
1166	49.19142167
1168	53.30811333
1170	60.86771667
1172	58.352595
1174	55.64501167
1176	55.94372667
1178	52.843415
1180	44.43289667
1182	41.13252833
1184	53.00771833
1186	57.67032
1188	47.22178167
1190	41.56867333
1192	56.26440333
1194	63.50126667
1196	57.00390667
1198	54.524735
1200	65.25413167
1202	66.74399
1204	55.41880833
1206	43.78525667
1208	44.25289833
1210	55.32532
1212	53.98401667
1214	44.97353833
1216	48.75327667
1218	62.17722833
1220	59.73273667
1222	54.789055
1224	63.68006833
1226	74.59444667
1228	71.57547333
1230	66.90187333
1232	67.95092833
1234	72.60663167
1236	79.92526667
1238	63.31902833
1240	51.58185167
1242	62.90698167
1244	61.660115
1246	53.927115
1248	50.31770167
1250	54.64924333
1252	60.66372667
1254	55.33452667
1256	48.75640333
1258	54.11260833
1260	62.18380833
1262	51.45531333
1264	54.52413333
1266	61.70222667
1268	53.19492167
1270	39.10749833
1272	43.36524167
1274	53.937995
1276	55.90553833
1278	50.01829
1280	46.766715
1282	53.09344
1284	70.09301
1286	75.85734
1288	55.32850667
1290	70.961495
1292	64.20711333
1294	42.71777667
1296	65.70567833
1298	65.45020667
1300	57.53022333
1302	50.38196333
1304	43.32953333
1306	53.03211333
1308	62.32363833
1310	59.50925
1312	64.85917
1314	89.09724167
1316	72.157895
1318	54.96503167
1320	63.21845667
1322	72.36705667
1324	62.17601833
1326	56.84112833
1328	70.90775333
1330	83.27151
1332	66.78179833
1334	55.468065
1336	61.69036
1338	67.140515
1340	60.11106
1342	66.28145167
1344	80.69219333
1346	85.14692
1348	75.23501
1350	67.693005
1352	71.43053167
1354	66.88785
1356	54.06568833
1358	52.81536333
1360	50.854115
1362	51.60829167
1364	48.394915
1366	45.130065
1368	68.30716167
1370	78.168915
1372	67.252965
1374	61.87663
1376	72.45712
1378	60.487295
1380	55.83391667
1382	69.808225
1384	74.58541667
1386	63.25582833
1388	62.39050333
1390	69.068705
1392	69.32369333
1394	67.77724833
1396	63.58084833
1398	63.91714667
1400	70.10106333
1402	71.82264833
1404	63.47425833
1406	70.92707833
1408	81.35648333
1410	64.20176167
1412	34.970745
1414	48.87304
1416	63.54496333
1418	48.94830333
1420	50.59967667
1422	76.95374667
1424	70.296515
1426	59.63210167
1428	89.90307
1430	82.45209167
1432	77.18896833
1434	75.686075
1436	66.12655833
1438	69.357985
1440	61.86704167
1442	57.91973167
1444	66.19399667
1446	72.06695
1448	73.048335
1450	77.18966
1452	82.41849667
1454	79.40648667
1456	69.99922
1458	78.23659
1460	92.40045167
1462	88.42898833
1464	72.19374
1466	84.50011
1468	94.50851167
1470	72.66006667
1472	47.50776833
1474	71.51417667
1476	68.42889667
1478	54.59917
1480	68.12653667
1482	77.86025333
1484	79.82383
1486	80.76732167
1488	82.403475
1490	80.35344333
1492	71.60533167
1494	53.71655667
1496	59.96521
1498	81.933195
1500	57.10190667
1502	74.49377833
1504	96.69105833
1506	87.04000333
1508	84.09166833
1510	78.016385
1512	74.06768667
1514	69.96883833
1516	65.30875833
1518	77.048605
1520	84.49803833
1522	78.135715
1524	73.00757833
1526	78.05929333
1528	57.06623833
1530	64.983935
1532	98.39522833
1534	96.16564333
1536	79.42848333
1538	80.17257
1540	87.35083
1542	84.36677667
1544	82.78145
1546	72.26206667
1548	81.59541667
1550	85.83036167
1552	51.26888167
1554	82.20928333
1556	84.676415
1558	66.43734833
1560	91.95178
1562	91.41355333
1564	67.04576333
1566	64.79632333
1568	83.983245
1570	77.665385
1572	73.79762333
1574	89.54652
1576	88.96701833
1578	57.3931
1580	72.01148333
1582	89.28579667
1584	93.10762333
1586	95.46029333
1588	93.14082667
1590	106.5729283
1592	97.66443
1594	84.28167667
1596	112.92818
1598	104.593235
1600	84.1321
1602	88.43542333
1604	94.672845
1606	61.07223333
1608	79.383485
1610	99.304435
1612	85.60158667
1614	100.2101267
1616	101.384125
1618	97.99125667
1620	93.38507333
1622	89.28409667
1624	115.5570483
1626	95.14878
1628	77.81560667
1630	103.809595
1632	92.96828667
1634	82.571165
1636	111.3414867
1638	138.6405683
1640	112.525415
1642	102.057075
1644	133.3984883
1646	123.9418167
1648	74.51195167
1650	131.9263867
1652	125.102845
1654	88.965415
1656	91.66098667
1658	82.49978667
1660	78.95822167
1662	88.94896
1664	109.7042667
1666	122.9537483
1668	105.0341117
1670	109.7373767
1672	99.60153333
1674	67.27254333
1676	93.985815
1678	117.32491
1680	99.91441833
1682	77.352505
1684	93.39481
1686	109.6678433
1688	100.5749817
1690	104.661265
1692	125.7210233
1694	94.04224167
1696	86.50046167
1698	107.9064333
1700	109.7302633
1702	85.54926
1704	100.5889767
1706	99.889675
1708	81.16849333
1710	105.1951233
1712	160.6993433
1714	135.3128167
1716	138.418685
1718	192.5171817
1720	132.64187
1722	127.8767717
1724	148.4783467
1726	129.3646
1728	102.3578117
1730	113.432355
1732	113.0105283
1734	101.1201633
1736	111.050815
1738	128.1963783
1740	110.1986233
1742	120.0151433
1744	147.5520033
1746	112.8547083
1748	97.93152667
1750	94.146805
1752	87.51023333
1754	93.79935
1756	113.34563
1758	101.4976217
1760	100.4486417
1762	127.7763517
1764	124.8036417
1766	115.3835933
1768	122.9917567
1770	119.5417467
1772	87.78870167
1774	94.70138167
1776	111.9607083
1778	122.18589
1780	132.6198867
1782	137.3901883
1784	121.3563517
1786	134.1085183
1788	162.0383667
1790	148.259735
1792	158.9879217
1794	168.7526417
1796	148.7614867
1798	123.242945
1800	131.937225
1802	125.9165683
1804	130.1913167
1806	155.2877867
1808	147.1460817
1810	120.5486683
1812	142.3285033
1814	164.6766383
1816	126.9617267
1818	134.3154233
1820	120.2301683
1822	105.8379083
1824	135.2956367
1826	153.9375967
1828	134.2899
1830	134.7048767
1832	152.5158833
1834	135.4957733
1836	137.4252967
1838	136.672575
1840	132.4486617
1842	129.5363083
1844	107.10502
1846	140.5776167
1848	143.06127
1850	107.5587783
1852	152.7510567
1854	169.1805933
1856	166.4788067
1858	165.9269283
1860	163.9963317
1862	179.364795
1864	159.7547017
1866	162.4283333
1868	202.0251917
1870	176.8531633
1872	158.2146217
1874	185.5740067
1876	189.6723017
1878	148.2355083
1880	224.7932633
1882	178.5770017
1884	132.01234
1886	224.6979217
1888	169.1834217
1890	159.93658
1892	181.5702633
1894	166.0090817
1896	178.3963383
1898	223.8990417
1900	191.9372883
1902	156.1769983
1904	198.8015817
1906	149.5462033
1908	162.7717233
1910	184.6810767
1912	136.4581017
1914	131.0273283
1916	177.2574167
1918	180.3252433
1920	168.39934
1922	202.6502233
1924	146.2113867
1926	154.3758567
1928	199.0792217
1930	177.31581
1932	162.7337367
1934	142.6678283
1936	115.9157833
1938	133.9087817
1940	193.208325
1942	136.4598433
1944	214.1397817
1946	276.1029133
1948	133.7960967
1950	187.257455
1952	185.0884417
1954	158.69973
1956	190.4137533
1958	154.6853883
1960	178.1307367
1962	201.4416067
1964	185.73403
1966	197.2342283
1968	240.91954
1970	179.1769783
1972	152.2937983
1974	219.0313217
1976	145.9508733
1978	182.9994133
1980	161.0995583
1982	103.3333217
1984	230.7376483
1986	159.5617633
1988	160.2356533
1990	195.268075
1992	99.30310833
1994	154.1604233
1996	144.0440133
1998	97.67092667
2000	33.42167833
2002	31.10041167
2004	39.45965667
2006	47.85687
2008	47.10405
2010	44.64602833
2012	52.32658833
2014	54.11949333
2016	46.41413
2018	44.201535
2020	53.06382167
2022	49.604365
2024	54.41787167
2026	70.14802
2028	57.16916167
2030	57.56985667
2032	72.789965
2034	75.79133833
2036	61.012765
2038	65.27706167
2040	80.710915
2042	81.633755
2044	68.61371167
2046	72.21018333
2048	66.92211333
2050	55.96174167
2052	53.45035833
2054	53.849315
2056	57.06959667
2058	64.15605333
2060	67.83884
2062	63.831955
2064	69.99695
2066	89.10358833
2068	95.97724333
2070	78.03992833
2072	66.973215
2074	75.14867667
2076	80.151545
2078	68.20785667
2080	57.56815667
2082	61.34160167
2084	60.49671667
2086	57.67925167
2088	66.330065
2090	61.31874
2092	64.74298667
2094	70.30854667
2096	63.212505
2098	64.67408667
2100	80.19377667
2102	87.62694833
2104	78.41836
2106	72.73534333
2108	78.443215
2110	79.63397167
2112	70.066875
2114	58.34790333
2116	49.72553
2118	53.89652833
2120	56.12071333
2122	49.6531
2124	57.12704833
2126	66.14843
2128	70.18178167
2130	71.45903333
2132	73.72959667
2134	78.83523167
2136	73.28706333
2138	62.16456667
2140	62.18553167
2142	68.09916833
2144	63.67055833
2146	52.36147
2148	51.82063333
2150	65.549785
2152	61.16068333
2154	62.384915
2156	73.51865833
2158	65.999335
2160	67.28664
2162	84.09263833
2164	95.57500833
2166	88.26250333
2168	83.80584333
2170	88.75174833
2172	91.448465
2174	86.06323667
2176	81.94811333
2178	75.57694333
2180	68.584255
2182	70.318765
2184	83.75732167
2186	91.06039833
2188	92.058295
2190	87.37118333
2192	82.972175
2194	94.83093833
2196	104.577765
2198	107.2339767
2200	111.308935
2202	111.61131
2204	75.24766
2206	47.24629333
2208	61.89235333
2210	87.61946333
2212	73.6099
2214	51.76796667
2216	54.81708
2218	72.91804833
2220	74.928565
2222	76.138315
2224	72.75758167
2226	72.69576167
2228	94.967845
2230	92.04617833
2232	84.89967667
2234	87.90179167
2236	82.702105
2238	70.191645
2240	58.672235
2242	57.020835
2244	65.09006
2246	68.789545
2248	56.47459333
2250	64.60003333
2252	87.22987167
2254	72.09651833
2256	62.83193833
2258	74.50768333
2260	80.99998667
2262	64.50583667
2264	57.20169667
2266	56.59282333
2268	58.106045
2270	60.27128333
2272	59.03040333
2274	63.846765
2276	73.42280167
2278	78.26977833
2280	74.36130833
2282	73.853395
2284	87.811145
2286	92.646675
2288	70.48140333
2290	63.67192833
2292	79.26602167
2294	82.64277
2296	63.20725833
2298	60.75448167
2300	70.03257667
2302	71.63772
2304	63.99541
2306	62.22814333
2308	70.74006667
2310	100.4426183
2312	103.0064117
2314	64.27708833
2316	88.41614667
2318	105.75851
2320	85.53010667
2322	83.52734167
2324	134.4553933
2326	113.198545
2328	85.6574
2330	104.7706317
2332	110.8615067
2334	92.26416167
2336	75.54129667
2338	87.90261167
2340	109.34996
2342	83.18943667
2344	74.80214
2346	103.5893483
2348	113.963445
2350	69.81789833
2352	74.788025
2354	87.21252667
2356	67.87473667
2358	60.23171833
2360	85.25005833
2362	73.79477333
2364	63.99471333
2366	101.26905
2368	97.24749167
2370	88.91613167
2372	99.90540667
2374	112.3677533
2376	105.684785
2378	96.34862167
2380	95.95633333
2382	89.90934667
2384	81.04065333
2386	120.6075533
2388	109.0233733
2390	64.76887333
2392	80.12459167
2394	133.2445217
2396	112.2045917
2398	80.65509167
2400	108.5830033
2402	132.414225
2404	92.45371
2406	74.98045667
2408	101.9535483
2410	103.5740633
2412	72.28185167
2414	52.50515
2416	72.343395
2418	94.340835
2420	64.83194
2422	91.62938333
2424	129.7705017
2426	116.0368833
2428	91.684675
2430	98.67808167
2432	93.330225
2434	79.035975
2436	89.18113
2438	89.84222833
2440	109.44437
2442	101.012585
2444	64.83343667
2446	106.01403
2448	134.588465
2450	107.90091
2452	87.46077
2454	127.7690817
2456	130.3665017
2458	113.8333867
2460	124.3743117
2462	141.192
2464	94.93411167
2466	55.13191667
2468	80.35245167
2470	116.4994817
2472	74.96656333
2474	85.7772
2476	121.0354583
2478	115.7672483
2480	94.85750333
2482	115.0554867
2484	124.1579667
2486	97.773585
2488	79.45692333
2490	102.3379767
2492	86.96001833
2494	67.26100333
2496	91.82692667
2498	112.5460767
2500	100.46585
2502	93.396645
2504	100.5589267
2506	94.90005167
2508	97.46819667
2510	115.2553183
2512	139.1565867
2514	150.0135433
2516	129.3533583
2518	88.95240333
2520	102.344205
2522	139.690545
2524	91.19161
2526	92.928115
2528	129.2073833
2530	130.2299317
2532	109.0395767
2534	147.5715733
2536	158.8591517
2538	114.742675
2540	90.326245
2542	132.658675
2544	115.200535
2546	86.51520833
2548	119.1615483
2550	149.1831417
2552	101.5293083
2554	89.25179667
2556	130.9118183
2558	130.2999683
2560	104.543025
2562	124.17569
2564	153.6871283
2566	139.3241583
2568	126.6975667
2570	143.4414983
2572	145.2361267
2574	106.8031767
2576	77.73320667
2578	114.4591967
2580	145.2950133
2582	143.3415683
2584	153.1558717
2586	173.6114133
2588	144.15511
2590	114.5088017
2592	137.9324133
2594	150.78846
2596	120.0323717
2598	119.9745583
2600	148.4821433
2602	125.269565
2604	118.2938417
2606	120.7825817
2608	114.9485167
2610	117.613155
2612	148.6196733
2614	156.2235933
2616	132.8678267
2618	131.5639917
2620	172.9236583
2622	124.4826433
2624	96.10082667
2626	138.9038
2628	135.5753417
2630	86.657365
2632	110.1816733
2634	167.1009967
2636	147.7648083
2638	111.6880517
2640	151.5347917
2642	159.5261067
2644	94.90577333
2646	111.2103717
2648	150.57202
2650	122.073285
2652	90.16269667
2654	147.06396
2656	138.17557
2658	107.6248667
2660	128.9911083
2662	170.569195
2664	141.1318933
2666	129.29525
2668	148.5302133
2670	150.2731283
2672	124.4630233
2674	119.483735
2676	122.011055
2678	113.8450867
2680	116.4717833
2682	155.6584467
2684	152.4281383
2686	150.33251
2688	190.7887183
2690	165.5306917
2692	136.52258
2694	159.46949
2696	171.0278733
2698	104.66281
2700	145.337085
2702	198.93666
2704	166.695235
2706	122.174815
2708	175.3004383
2710	178.1388733
2712	146.666435
2714	175.6740917
2716	199.63425
2718	150.1852867
2720	141.16714
2722	183.1307417
2724	137.4427033
2726	96.93157
2728	151.5554083
2730	189.7905733
2732	119.493115
2734	150.492375
2736	217.2457617
2738	198.7350383
2740	151.1326067
2742	222.60047
2744	167.6969033
2746	109.9534733
2748	159.5758733
2750	174.69457
2752	127.69628
2754	172.6321283
2756	226.81952
2758	154.6352033
2760	156.2347917
2762	214.14519
2764	216.2256017
2766	178.0736117
2768	214.7724517
2770	155.9386783
2772	116.7076167
2774	168.607155
2776	185.9903117
2778	152.7516917
2780	168.5093433
2782	189.6480817
2784	156.895255
2786	194.8012583
2788	212.4435117
2790	153.28593
2792	114.4902733
2794	189.90699
2796	141.5661883
2798	134.67574
2800	208.505435
2802	171.0051783
2804	127.0092183
2806	183.9544383
2808	219.092015
2810	160.1137633
2812	214.889945
2814	228.2956583
2816	184.4855683
2818	167.1696433
2820	178.3758533
2822	167.29875
2824	168.5347133
2826	193.7593717
2828	218.06595
2830	255.2445133
2832	212.5316233
2834	157.54278
2836	188.8156083
2838	214.246915
2840	171.8104283
2842	178.8581233
2844	235.20938
2846	190.1837083
2848	186.0131533
2850	211.389215
2852	212.070575
2854	201.456435
2856	218.666195
2858	206.4357833
2860	211.9196733
2862	231.938645
2864	132.1060517
2866	113.7561483
2868	173.19126
2870	196.161415
2872	181.3507883
2874	236.2156283
2876	217.9980767
2878	170.859175
2880	221.569595
2882	194.8848783
2884	208.176815
2886	245.6886717
2888	238.7072817
2890	252.039455
2892	252.95947
2894	207.227155
2896	209.2148633
2898	319.0270833
2900	262.151775
2902	248.515115
2904	287.3778133
2906	225.080315
2908	228.7868733
2910	261.5478083
2912	233.6393883
2914	194.0968533
2916	267.03762
2918	268.79078
2920	276.4742683
2922	289.91437
2924	207.7499317
2926	245.5607833
2928	243.3519333
2930	193.86561
2932	255.6627767
2934	358.2472983
2936	227.598265
2938	180.7670183
2940	344.4903683
2942	277.9998133
2944	256.2693683
2946	328.2411417
2948	328.9480467
2950	221.0453517
2952	255.2123517
2954	262.752125
2956	238.7628
2958	287.6272367
2960	306.2012017
2962	375.3376217
2964	341.4733567
2966	219.7971667
2968	284.167545
2970	293.1984017
2972	244.110795
2974	252.35784
2976	307.40784
2978	270.142535
2980	312.944115
2982	340.731865
2984	253.163105
2986	299.92709
2988	318.1429783
2990	284.847785
2992	285.444835
2994	315.5645367
2996	272.5303067
2998	211.9978833
3000	263.571155
3002	380.5396483
3004	276.9132717
3006	241.7608617
3008	344.5112233
3010	347.2483333
3012	184.3837433
3014	341.427955
3016	454.20173
3018	292.827205
3020	261.0736583
3022	311.8254083
3024	388.92982
3026	376.01342
3028	288.592395
3030	410.704135
3032	346.145625
3034	290.23023
3036	428.0163467
3038	326.3218067
3040	335.46173
3042	464.9474017
3044	485.1898967
3046	363.0724967
3048	374.181005
3050	375.0567533
3052	308.1776667
3054	339.671395
3056	510.67998
3058	456.7889483
3060	274.9078733
3062	271.9124017
3064	395.002955
3066	311.9925717
3068	339.7692617
3070	447.1661167
3072	278.02401
3074	368.7845733
3076	315.9645783
3078	243.71822
3080	454.5925383
3082	386.7940533
3084	378.92947
3086	414.6867333
3088	333.7807433
3090	285.1168633
3092	284.8311717
3094	369.5807617
3096	454.28705
3098	414.3904567
3100	369.5020333
3102	346.05964
3104	283.9741783
3106	240.86142
3108	399.5476367
3110	438.6562583
3112	309.416395
3114	267.747935
3116	413.16399
3118	296.3876117
3120	333.510375
3122	536.3030717
3124	427.1910217
3126	302.77507
3128	368.2027917
3130	457.4289483
3132	423.55637
3134	464.6255683
3136	512.966105
3138	406.4260733
3140	344.3862317
3142	576.632065
3144	382.3159233
3146	327.5358333
3148	476.5037667
3150	343.8692917
3152	415.255155
3154	388.8433617
3156	431.9108533
3158	624.5148417
3160	377.154565
3162	294.868765
3164	321.74487
3166	296.6686033
3168	405.1922133
3170	432.4658733
3172	446.73678
3174	393.9443
3176	267.49716
3178	437.661365
3180	347.2197033
3182	249.89341
3184	459.5033133
3186	413.47024
3188	272.5133083
3190	365.9033167
3192	419.660495
3194	112.2687433
3196	418.4013583
3198	421.18584
3200	141.2943117
