369.024689 -245.000000
371.295044 -138.000000
373.564575 -32.000000
375.833252 -25.000000
378.101074 46.000000
380.368073 34.000000
382.634186 23.000000
384.899475 61.000000
387.163910 100.000000
389.427490 86.000000
391.690247 -28.000000
393.952118 -74.000000
396.213196 -52.000000
398.473389 12.000000
400.732758 81.000000
402.991272 91.000000
405.248932 18.000000
407.505768 67.000000
409.761749 -17.000000
412.016876 -73.000000
414.271179 -77.000000
416.524628 -82.000000
418.777252 -73.000000
421.029022 -51.000000
423.279938 -29.000000
425.530029 -31.000000
427.779297 57.000000
430.027679 53.000000
432.275269 62.000000
434.522003 0.000000
436.767883 -61.000000
439.012939 -58.000000
441.257141 -109.000000
443.500519 70.000000
445.743042 89.000000
447.984741 -73.000000
450.225616 8.000000
452.465637 38.000000
454.704803 -41.000000
456.943176 32.000000
459.180664 5.000000
461.417358 -21.000000
463.653198 67.000000
465.888214 -31.000000
468.122375 -164.000000
470.355713 63.000000
472.588226 78.000000
474.819916 -97.000000
477.050751 -6.000000
479.280762 -42.000000
481.509949 5.000000
483.738281 -61.000000
485.965790 -161.000000
488.192474 -103.000000
490.418335 -102.000000
492.643341 -102.000000
494.867523 -57.000000
497.090881 66.000000
499.313416 -2.000000
501.535126 -17.000000
503.755981 54.000000
505.976044 7.000000
508.195251 65.000000
510.413635 98.000000
512.631226 132.000000
514.847961 7.000000
517.063843 226.000000
519.278931 -132.000000
521.493164 -129.000000
523.706604 84.000000
525.919189 -69.000000
528.130981 -13.000000
530.341919 -63.000000
532.552063 13.000000
534.761353 132.000000
536.969849 170.000000
539.177490 144.000000
541.384338 -34.000000
543.590332 51.000000
545.795532 21.000000
547.999878 -65.000000
550.203430 -8.000000
552.406189 49.000000
554.608093 41.000000
556.809143 -8.000000
559.009399 -57.000000
561.208862 -54.000000
563.407471 -52.000000
565.605286 -45.000000
567.802307 132.000000
569.998474 121.000000
572.193787 12.000000
574.388306 -58.000000
576.582031 -9.000000
578.774963 -17.000000
580.967041 -25.000000
583.158264 28.000000
585.348694 -17.000000
587.538330 37.000000
589.727173 92.000000
591.915161 52.000000
594.102356 77.000000
596.288696 -63.000000
598.474304 16.000000
600.658997 44.000000
602.842957 -42.000000
605.026062 24.000000
607.208374 -41.000000
609.389832 -68.000000
611.570557 -70.000000
613.750427 -73.000000
615.929443 -98.000000
618.107666 -56.000000
620.285156 -15.000000
622.461731 19.000000
624.637573 54.000000
626.812561 46.000000
628.986755 -22.000000
631.160156 34.000000
633.332703 51.000000
635.504456 -72.000000
637.675415 7.000000
639.845581 -11.000000
642.014954 -73.000000
644.183472 -63.000000
646.351196 -73.000000
648.518127 -93.000000
650.684265 -113.000000
652.849548 -31.000000
655.014038 -49.000000
657.177734 55.000000
659.340637 -53.000000
661.502747 -39.000000
663.664001 -72.000000
665.824524 -63.000000
667.984192 -7.000000
670.143066 6.000000
672.301147 16.000000
674.458374 14.000000
676.614868 12.000000
678.770508 78.000000
680.925415 139.000000
683.079468 77.000000
685.232727 16.000000
687.385193 33.000000
689.536865 51.000000
691.687744 81.000000
693.837769 -14.000000
695.987061 -28.000000
698.135498 -43.000000
700.283142 3.000000
702.430054 -35.000000
704.576111 9.000000
706.721375 62.000000
708.865845 58.000000
711.009521 55.000000
713.152405 93.000000
715.294495 107.000000
717.435791 106.000000
719.576294 106.000000
721.716003 104.000000
723.854858 13.000000
725.992981 -32.000000
728.130310 23.000000
730.266846 79.000000
732.402527 76.000000
734.537476 38.000000
736.671631 -94.000000
738.804993 -48.000000
740.937500 -2.000000
743.069275 100.000000
745.200256 -71.000000
747.330444 149.000000
749.459839 -111.000000
751.588440 -100.000000
753.716248 67.000000
755.843262 -9.000000
757.969482 61.000000
760.094910 -22.000000
762.219543 17.000000
764.343384 -122.000000
766.466492 -66.000000
768.588745 -95.000000
770.710266 -39.000000
772.830994 16.000000
774.950867 49.000000
777.070007 83.000000
779.188354 87.000000
781.305908 -3.000000
783.422729 51.000000
785.538696 105.000000
787.653870 72.000000
789.768311 43.000000
791.881958 -140.000000
793.994812 -63.000000
796.106873 63.000000
798.218140 68.000000
800.328613 73.000000
802.438354 91.000000
804.547302 110.000000
806.655457 43.000000
808.762817 -46.000000
810.869385 -103.000000
812.975159 -101.000000
815.080200 -100.000000
817.184448 -50.000000
819.287903 37.000000
821.390564 59.000000
823.492493 -22.000000
825.593628 -103.000000
827.693970 -85.000000
829.793518 55.000000
831.892273 66.000000
833.990295 68.000000
836.087524 70.000000
838.183960 74.000000
840.279663 78.000000
842.374573 -22.000000
844.468689 55.000000
846.562012 72.000000
848.654602 36.000000
850.746338 1.000000
852.837402 3.000000
854.927612 -15.000000
857.017090 87.000000
859.105774 97.000000
861.193665 -76.000000
863.280823 -33.000000
865.367188 -103.000000
867.452759 -71.000000
869.537598 -39.000000
871.621643 -45.000000
873.704956 -123.000000
875.787415 -127.000000
877.869141 -98.000000
879.950134 142.000000
882.030334 130.000000
884.109741 146.000000
886.188354 -91.000000
888.266235 -47.000000
890.343384 -151.000000
892.419678 -22.000000
894.495239 -42.000000
896.570068 -47.000000
898.644104 77.000000
900.717346 175.000000
902.789856 61.000000
904.861572 19.000000
906.932556 117.000000
909.002747 52.000000
911.072144 4.000000
913.140808 -43.000000
915.208679 -33.000000
917.275818 22.000000
919.342163 15.000000
921.407776 -91.000000
923.472595 -42.000000
925.536682 -74.000000
927.599976 -98.000000
929.662537 -122.000000
931.724304 -106.000000
933.785278 -15.000000
935.845520 147.000000
937.905029 104.000000
939.963745 10.000000
942.021667 11.000000
944.078918 -28.000000
946.135315 -27.000000
948.190979 -56.000000
950.245911 -86.000000
952.300049 -22.000000
954.353455 -75.000000
956.406067 13.000000
958.457947 -3.000000
960.509033 -4.000000
962.559387 5.000000
964.609009 -45.000000
966.657837 38.000000
968.705933 -19.000000
970.753235 -52.000000
972.799805 -106.000000
974.845581 -183.000000
976.890625 -135.000000
978.934937 -88.000000
980.978455 -90.000000
983.021240 2.000000
985.063232 -32.000000
987.104492 7.000000
989.145020 46.000000
991.184753 48.000000
993.223755 127.000000
995.262024 49.000000
997.299500 -28.000000
999.336243 -58.000000
1001.372253 -28.000000
1003.407471 2.000000
1005.441956 52.000000
1007.475647 137.000000
1009.508606 99.000000
1011.540833 62.000000
1013.572327 72.000000
1015.603027 13.000000
1017.632996 -46.000000
1019.662231 14.000000
1021.690674 52.000000
1023.718384 57.000000
1025.745361 63.000000
1027.771606 60.000000
1029.796997 9.000000
1031.821777 -42.000000
1033.845703 -39.000000
1035.868896 -14.000000
1037.891357 -106.000000
1039.913086 -54.000000
1041.934082 -90.000000
1043.954346 -9.000000
1045.973755 -49.000000
1047.992554 -89.000000
1050.010498 -48.000000
1052.027710 -86.000000
1054.044312 78.000000
1056.060059 -113.000000
1058.075073 -102.000000
1060.089233 -69.000000
1062.102783 25.000000
1064.115601 120.000000
1066.127563 35.000000
1068.138916 -178.000000
1070.149414 -123.000000
1072.159180 -9.000000
1074.168213 -1.000000
1076.176514 -84.000000
1078.184082 -42.000000
1080.190918 -49.000000
1082.197021 10.000000
1084.202393 -16.000000
1086.207031 39.000000
1088.210815 95.000000
1090.213989 80.000000
1092.216309 -66.000000
1094.218018 -199.000000
1096.218872 22.000000
1098.218994 200.000000
1100.218506 164.000000
1102.217163 -72.000000
1104.215088 -64.000000
1106.212280 -56.000000
1108.208740 -63.000000
1110.204468 -57.000000
1112.199463 15.000000
1114.193726 -30.000000
1116.187256 120.000000
1118.180054 13.000000
1120.172119 18.000000
1122.163452 4.000000
1124.153931 3.000000
1126.143799 2.000000
1128.132935 14.000000
1130.121338 16.000000
1132.108887 -15.000000
1134.095825 -47.000000
1136.082031 -38.000000
1138.067383 17.000000
1140.052124 72.000000
1142.036133 93.000000
1144.019287 51.000000
1146.001831 67.000000
1147.983643 85.000000
1149.964600 -112.000000
1151.944946 127.000000
1153.924561 144.000000
1155.903320 -99.000000
1157.881470 -24.000000
1159.858887 -17.000000
1161.835449 121.000000
1163.811401 -193.000000
1165.786621 -197.000000
1167.761108 -19.000000
1169.734863 -85.000000
1171.707764 -49.000000
1173.680054 19.000000
1175.651611 102.000000
1177.622437 -55.000000
1179.592529 19.000000
1181.561890 -99.000000
1183.530518 94.000000
1185.498535 95.000000
1187.465698 139.000000
1189.432129 108.000000
1191.397827 -4.000000
1193.362915 -117.000000
1195.327148 -97.000000
1197.290649 -77.000000
1199.253540 -9.000000
1201.215698 17.000000
1203.177002 -41.000000
1205.137695 -2.000000
1207.097656 20.000000
1209.056885 -33.000000
1211.015381 -176.000000
1212.973145 -156.000000
1214.930176 -137.000000
1216.886475 -159.000000
1218.842041 -126.000000
1220.796875 -25.000000
1222.751099 -35.000000
1224.704468 -11.000000
1226.657227 34.000000
1228.609253 -40.000000
1230.560547 -51.000000
1232.511108 77.000000
1234.460938 58.000000
1236.410034 65.000000
1238.358398 -31.000000
1240.306030 -42.000000
1242.253052 -93.000000
1244.199219 -57.000000
1246.144775 11.000000
1248.089600 -23.000000
1250.033691 6.000000
1251.977051 35.000000
1253.919678 12.000000
1255.861572 75.000000
1257.802856 24.000000
1259.743408 40.000000
1261.683105 -17.000000
1263.622192 80.000000
1265.560547 178.000000
1267.498169 157.000000
1269.435181 -44.000000
1271.371338 4.000000
1273.306885 53.000000
1275.241577 68.000000
1277.175659 10.000000
1279.109009 -124.000000
1281.041626 -61.000000
1282.973633 -41.000000
1284.904785 -74.000000
1286.835327 -52.000000
1288.765137 -31.000000
1290.694214 -19.000000
1292.622559 40.000000
1294.550171 99.000000
1296.477173 55.000000
1298.403442 -4.000000
1300.328979 69.000000
1302.253784 -90.000000
1304.177856 -272.000000
1306.101196 -161.000000
1308.023926 -80.000000
1309.945923 1.000000
1311.867188 -11.000000
1313.787720 -51.000000
1315.707642 -77.000000
1317.626709 -65.000000
1319.545166 -53.000000
1321.462891 -7.000000
1323.379883 -38.000000
1325.296265 14.000000
1327.211792 -27.000000
1329.126709 -51.000000
1331.040894 -52.000000
1332.954468 -54.000000
1334.867188 -83.000000
1336.779297 -49.000000
1338.690674 -16.000000
1340.601318 -68.000000
1342.511353 -54.000000
1344.420532 91.000000
1346.329102 109.000000
1348.236938 128.000000
1350.144165 -39.000000
1352.050537 -207.000000
1353.956299 -158.000000
1355.861328 -103.000000
1357.765747 -48.000000
1359.669312 -43.000000
1361.572266 -43.000000
1363.474487 -76.000000
1365.376099 -23.000000
1367.276855 -12.000000
1369.177002 -1.000000
1371.076416 15.000000
1372.975220 25.000000
1374.873169 35.000000
1376.770508 32.000000
1378.667114 15.000000
1380.563110 -133.000000
1382.458374 -71.000000
1384.352905 -58.000000
1386.246704 112.000000
1388.139893 69.000000
1390.032227 32.000000
1391.924072 25.000000
1393.815063 -85.000000
1395.705444 -31.000000
1397.595093 59.000000
1399.484009 13.000000
1401.372314 93.000000
1403.259888 64.000000
1405.146729 59.000000
1407.032959 55.000000
1408.918335 17.000000
1410.803223 156.000000
1412.687256 42.000000
1414.570679 168.000000
1416.453369 -40.000000
1418.335327 107.000000
1420.216675 -86.000000
1422.097290 -64.000000
1423.977173 -43.000000
1425.856445 -58.000000
1427.734985 -50.000000
1429.612793 -43.000000
1431.489990 -18.000000
1433.366455 112.000000
1435.242188 74.000000
1437.117310 36.000000
1438.991699 104.000000
1440.865356 49.000000
1442.738403 -91.000000
1444.610718 -142.000000
1446.482422 -131.000000
1448.353271 -30.000000
1450.223511 -118.000000
1452.093140 -30.000000
1453.962036 -70.000000
1455.830200 -110.000000
1457.697632 -59.000000
1459.564453 -9.000000
1461.430664 16.000000
1463.296021 42.000000
1465.160767 12.000000
1467.024902 44.000000
1468.888184 13.000000
1470.750854 -10.000000
1472.612915 -82.000000
1474.474243 25.000000
1476.334839 41.000000
1478.194824 57.000000
1480.054077 49.000000
1481.912598 18.000000
1483.770508 11.000000
1485.627686 5.000000
1487.484253 41.000000
1489.340088 -22.000000
1491.195190 31.000000
1493.049683 -24.000000
1494.903442 -102.000000
1496.756592 -187.000000
1498.609009 -153.000000
1500.460693 -86.000000
1502.311768 90.000000
1504.162109 27.000000
1506.011841 48.000000
1507.860840 96.000000
1509.709229 145.000000
1511.556885 8.000000
1513.403809 9.000000
1515.250122 164.000000
1517.095703 45.000000
1518.940674 79.000000
1520.784912 89.000000
1522.628418 100.000000
1524.471313 40.000000
1526.313599 -39.000000
1528.155029 64.000000
1529.995972 -39.000000
1531.836060 -26.000000
1533.675659 41.000000
1535.514404 109.000000
1537.352539 126.000000
1539.190063 -31.000000
1541.026855 -16.000000
1542.862915 -2.000000
1544.698364 16.000000
1546.533081 95.000000
1548.367188 -55.000000
1550.200684 30.000000
1552.033325 -20.000000
1553.865356 90.000000
1555.696777 106.000000
1557.527466 -96.000000
1559.357544 -64.000000
1561.186890 -118.000000
1563.015625 -31.000000
1564.843628 -123.000000
1566.670898 -79.000000
1568.497559 -35.000000
1570.323608 1.000000
1572.148926 -144.000000
1573.973633 -19.000000
1575.797607 102.000000
1577.620850 47.000000
1579.443481 -7.000000
1581.265503 -51.000000
1583.086792 -96.000000
1584.907349 -142.000000
1586.727295 -38.000000
1588.546631 -93.000000
1590.365234 -149.000000
1592.183105 -152.000000
1594.000366 56.000000
1595.817017 181.000000
1597.632935 76.000000
1599.448242 50.000000
1601.262817 24.000000
1603.076782 -68.000000
1604.890015 72.000000
1606.702637 -80.000000
1608.514526 49.000000
1610.325806 -138.000000
1612.136353 -164.000000
1613.946289 -138.000000
1615.755493 -113.000000
1617.564087 -53.000000
1619.372070 20.000000
1621.179321 124.000000
1622.985840 177.000000
1624.791870 155.000000
1626.597046 -35.000000
1628.401733 37.000000
1630.205566 76.000000
1632.008911 116.000000
1633.811523 165.000000
1635.613403 112.000000
1637.414673 59.000000
1639.215332 16.000000
1641.015259 5.000000
1642.814575 -6.000000
1644.613159 -48.000000
1646.411133 -210.000000
1648.208496 -112.000000
1650.005127 19.000000
1651.801025 -108.000000
1653.596313 -90.000000
1655.390991 -72.000000
1657.185059 -90.000000
1658.978394 -76.000000
1660.770996 28.000000
1662.562988 7.000000
1664.354370 -47.000000
1666.145020 113.000000
1667.935059 -15.000000
1669.724487 112.000000
1671.513184 -45.000000
1673.301270 -281.000000
1675.088623 -265.000000
1676.875366 25.000000
1678.661499 -64.000000
1680.446899 -27.000000
1682.231689 9.000000
1684.015747 -17.000000
1685.799194 -42.000000
1687.582031 69.000000
1689.364136 29.000000
1691.145630 63.000000
1692.926392 83.000000
1694.706543 104.000000
1696.486084 -3.000000
1698.265015 -110.000000
1700.043213 51.000000
1701.820679 -130.000000
1703.597656 -14.000000
1705.373901 -124.000000
1707.149414 -132.000000
1708.924316 61.000000
1710.698608 9.000000
1712.472290 -24.000000
1714.245239 23.000000
1716.017578 71.000000
1717.789185 85.000000
1719.560181 134.000000
1721.330566 -89.000000
1723.100342 8.000000
1724.869385 -166.000000
1726.637695 -107.000000
1728.405518 -93.000000
1730.172607 -79.000000
1731.939087 -41.000000
1733.704834 -4.000000
1735.469971 30.000000
1737.234497 -38.000000
1738.998413 36.000000
1740.761597 105.000000
1742.524048 77.000000
1744.286011 24.000000
1746.047241 9.000000
1747.807861 -5.000000
1749.567871 -43.000000
1751.327148 38.000000
1753.085815 -57.000000
1754.843750 52.000000
1756.601196 -114.000000
1758.357910 -76.000000
1760.113892 -35.000000
1761.869385 14.000000
1763.624146 -65.000000
1765.378296 -13.000000
1767.131714 42.000000
1768.884644 111.000000
1770.636719 -35.000000
1772.388306 31.000000
1774.139282 -27.000000
1775.889526 -128.000000
1777.639038 -107.000000
1779.388062 1.000000
1781.136353 48.000000
1782.884033 1.000000
1784.631104 78.000000
1786.377441 2.000000
1788.123291 8.000000
1789.868286 -12.000000
1791.612793 -32.000000
1793.356567 -91.000000
1795.099731 -5.000000
1796.842285 4.000000
1798.584229 14.000000
1800.325439 47.000000
1802.066040 47.000000
1803.806030 47.000000
1805.545410 -73.000000
1807.284058 0.000000
1809.022095 -84.000000
1810.759521 -78.000000
1812.496216 -73.000000
1814.232422 -118.000000
1815.967896 -100.000000
1817.702759 -82.000000
1819.436890 -116.000000
1821.170532 -74.000000
1822.903442 -14.000000
1824.635742 -10.000000
1826.367432 -6.000000
1828.098389 -43.000000
1829.828735 -80.000000
1831.558472 -63.000000
1833.287598 -29.000000
1835.016113 -36.000000
1836.743896 80.000000
1838.471069 51.000000
1840.197632 -26.000000
1841.923584 -103.000000
1843.648804 -13.000000
1845.373535 194.000000
1847.097534 125.000000
1848.820923 57.000000
1850.543579 107.000000
1852.265747 62.000000
1853.987183 18.000000
1855.708008 10.000000
1857.428223 -31.000000
1859.147827 -73.000000
1860.866699 -115.000000
1862.585083 -163.000000
1864.302734 -75.000000
1866.019775 77.000000
1867.736206 138.000000
1869.451904 199.000000
1871.167114 83.000000
1872.881592 59.000000
1874.595459 35.000000
1876.308716 4.000000
1878.021240 -27.000000
1879.733276 21.000000
1881.444580 116.000000
1883.155396 70.000000
1884.865479 56.000000
1886.574829 14.000000
1888.283691 33.000000
1889.991943 44.000000
1891.699463 -16.000000
1893.406372 -76.000000
1895.112671 -8.000000
1896.818359 -51.000000
1898.523438 -41.000000
1900.227905 -31.000000
1901.931641 -72.000000
1903.634888 -106.000000
1905.337402 -146.000000
1907.039307 -104.000000
1908.740601 41.000000
1910.441284 37.000000
1912.141235 -5.000000
1913.840698 -73.000000
1915.539429 66.000000
1917.237549 -91.000000
1918.935059 -42.000000
1920.631958 0.000000
1922.328247 81.000000
1924.023926 162.000000
1925.718994 52.000000
1927.413330 67.000000
1929.107056 90.000000
1930.800293 114.000000
1932.492798 -49.000000
1934.184692 5.000000
1935.875977 59.000000
1937.566650 87.000000
1939.256592 140.000000
1940.946045 -19.000000
1942.634766 8.000000
1944.322998 36.000000
1946.010498 50.000000
1947.697388 -156.000000
1949.383789 -178.000000
1951.069458 66.000000
1952.754395 81.000000
1954.438843 97.000000
1956.122681 92.000000
1957.805908 58.000000
1959.488403 33.000000
1961.170410 8.000000
1962.851685 -25.000000
1964.532349 14.000000
1966.212524 -106.000000
1967.891968 36.000000
1969.570801 18.000000
1971.249023 15.000000
1972.926636 -105.000000
1974.603638 -35.000000
1976.280029 66.000000
1977.955688 97.000000
1979.630859 110.000000
1981.305420 57.000000
1982.979248 -197.000000
1984.652588 -191.000000
1986.325195 -145.000000
1987.997314 -99.000000
1989.668701 -28.000000
1991.339478 -28.000000
1993.009644 -28.000000
1994.679321 28.000000
1996.348267 85.000000
1998.016602 94.000000
1999.684326 -55.000000
2001.351440 -30.000000
2003.017944 -80.000000
2004.683838 102.000000
2006.349121 -146.000000
2008.013794 -162.000000
2009.677856 -122.000000
2011.341187 -123.000000
2013.004028 -36.000000
2014.666260 -73.000000
2016.327881 0.000000
2017.988770 -8.000000
2019.649170 120.000000
2021.308960 132.000000
2022.968018 -42.000000
2024.626587 64.000000
2026.284546 -85.000000
2027.941772 5.000000
2029.598511 -154.000000
2031.254517 -311.000000
2032.910034 -106.000000
2034.564941 62.000000
2036.219116 41.000000
2037.872803 -1.000000
2039.525757 -44.000000
2041.178223 -19.000000
2042.829956 5.000000
2044.481201 63.000000
2046.131836 44.000000
2047.781738 -47.000000
2049.431152 19.000000
2051.079834 106.000000
2052.728027 122.000000
2054.375488 -35.000000
2056.022461 -6.000000
2057.668701 -120.000000
2059.314453 -69.000000
2060.959717 -146.000000
2062.604248 -4.000000
2064.248047 -27.000000
2065.891357 74.000000
2067.533936 -39.000000
2069.176025 -28.000000
2070.817627 -13.000000
2072.458496 48.000000
2074.098633 110.000000
2075.738281 1.000000
2077.377441 -46.000000
2079.015869 -94.000000
2080.653564 -57.000000
2082.290771 -164.000000
2083.927490 -34.000000
2085.563477 128.000000
2087.198975 -275.000000
2088.833740 -192.000000
2090.468018 -109.000000
2092.101562 -85.000000
2093.734619 -53.000000
2095.366943 22.000000
2096.998779 0.000000
2098.629883 -42.000000
2100.260498 -66.000000
2101.890381 66.000000
2103.519775 5.000000
2105.148682 93.000000
2106.776855 -151.000000
2108.404297 -108.000000
2110.031494 -65.000000
2111.657715 -48.000000
2113.283447 -84.000000
2114.908691 -121.000000
2116.533203 -138.000000
2118.157227 -105.000000
2119.780518 -73.000000
2121.403320 -150.000000
2123.025635 -109.000000
2124.647217 87.000000
2126.268066 56.000000
2127.888428 -3.000000
2129.508301 -180.000000
2131.127441 -72.000000
2132.746094 -10.000000
2134.364014 170.000000
2135.981445 84.000000
2137.598145 128.000000
2139.214355 127.000000
2140.830078 127.000000
2142.445068 70.000000
2144.059326 -42.000000
2145.673096 -55.000000
2147.286377 48.000000
2148.898926 -53.000000
2150.510986 -39.000000
2152.122314 -73.000000
2153.733154 -17.000000
2155.343506 -47.000000
2156.953125 -74.000000
2158.562012 -220.000000
2160.170410 -214.000000
2161.778320 -39.000000
2163.385498 -20.000000
2164.992188 36.000000
2166.598389 -97.000000
2168.203857 -189.000000
2169.808594 -282.000000
2171.412842 -324.000000
2173.016602 -109.000000
2174.619629 -20.000000
2176.222168 68.000000
2177.824219 43.000000
2179.425537 231.000000
2181.026123 -84.000000
2182.626221 -362.000000
2184.225830 -210.000000
2185.824707 14.000000
2187.423096 72.000000
2189.020996 130.000000
2190.618164 125.000000
2192.214600 32.000000
2193.810547 132.000000
2195.406006 -97.000000
2197.000732 33.000000
2198.594971 -134.000000
2200.188721 -127.000000
2201.781738 -19.000000
2203.374268 -56.000000
2204.966064 19.000000
2206.557373 73.000000
2208.147949 64.000000
2209.738037 55.000000
2211.327637 50.000000
2212.916504 102.000000
2214.504883 77.000000
2216.092529 53.000000
2217.679688 39.000000
2219.266357 22.000000
2220.852295 6.000000
2222.437744 39.000000
2224.022461 -79.000000
2225.606689 -167.000000
2227.190430 76.000000
2228.773438 -139.000000
2230.355957 -83.000000
2231.937744 144.000000
2233.519043 113.000000
2235.099609 83.000000
2236.679932 130.000000
2238.259277 177.000000
2239.838379 45.000000
2241.416748 -87.000000
2242.994385 -130.000000
2244.571533 -161.000000
2246.148193 -193.000000
2247.724365 -177.000000
2249.299805 -162.000000
2250.874512 -193.000000
2252.448975 -116.000000
2254.022461 -88.000000
2255.595703 -60.000000
2257.168213 -110.000000
2258.740234 -40.000000
2260.311523 30.000000
2261.882324 50.000000
2263.452393 29.000000
2265.021973 112.000000
2266.591064 11.000000
2268.159668 24.000000
2269.727539 37.000000
2271.294678 -35.000000
2272.861328 -73.000000
2274.427490 -85.000000
2275.993164 -80.000000
2277.558105 -19.000000
2279.122559 -16.000000
2280.686279 -14.000000
2282.249512 -3.000000
2283.812256 24.000000
2285.374268 -21.000000
2286.935791 -67.000000
2288.496582 -107.000000
2290.056885 -124.000000
2291.616699 -142.000000
2293.176025 -53.000000
2294.734619 -179.000000
2296.292480 160.000000
2297.849854 46.000000
2299.406738 170.000000
2300.963135 156.000000
2302.518799 -100.000000
2304.073975 -18.000000
2305.628418 -84.000000
2307.182617 -89.000000
2308.735840 -131.000000
2310.288818 -44.000000
2311.841064 183.000000
2313.392578 119.000000
2314.943848 108.000000
2316.494385 79.000000
2318.044189 -70.000000
2319.593750 33.000000
2321.142334 16.000000
2322.690674 1.000000
2324.238281 -13.000000
2325.785400 -8.000000
2327.332031 37.000000
2328.877930 149.000000
2330.423096 -28.000000
2331.968018 -24.000000
2333.512207 -20.000000
2335.055908 -37.000000
2336.598877 69.000000
2338.141357 -86.000000
2339.683350 -146.000000
2341.224609 65.000000
2342.765381 -40.000000
2344.305664 -20.000000
2345.845215 -86.000000
2347.384277 172.000000
2348.922852 6.000000
2350.460693 6.000000
2351.998047 -42.000000
2353.534912 -13.000000
2355.071045 15.000000
2356.606689 21.000000
2358.141846 27.000000
2359.676270 37.000000
2361.210205 68.000000
2362.743652 -34.000000
2364.276367 69.000000
2365.808594 57.000000
2367.340088 -159.000000
2368.871338 -147.000000
2370.401855 136.000000
2371.931641 78.000000
2373.461182 163.000000
2374.989990 249.000000
2376.518066 198.000000
2378.045898 1.000000
2379.572998 -174.000000
2381.099365 -22.000000
2382.625488 142.000000
2384.150879 11.000000
2385.675781 141.000000
2387.199951 -236.000000
2388.723633 -197.000000
2390.246826 233.000000
2391.769287 -119.000000
2393.291260 -81.000000
2394.812744 -78.000000
2396.333740 -32.000000
2397.854004 13.000000
2399.373779 -27.000000
2400.892822 -68.000000
2402.411377 -46.000000
2403.929443 109.000000
2405.447021 73.000000
2406.963867 37.000000
2408.480225 163.000000
2409.996094 8.000000
2411.511230 -1.000000
2413.025879 -10.000000
2414.540039 40.000000
2416.053711 -20.000000
2417.566650 46.000000
2419.079102 -24.000000
2420.590820 54.000000
2422.102051 -5.000000
2423.612793 88.000000
2425.123047 -12.000000
2426.632568 -8.000000
2428.141602 -5.000000
2429.650146 22.000000
2431.157959 -92.000000
2432.665527 -193.000000
2434.172119 -118.000000
2435.678467 -108.000000
2437.184082 -99.000000
2438.689209 3.000000
2440.193848 105.000000
2441.697754 100.000000
2443.201172 10.000000
2444.704102 121.000000
2446.206299 -43.000000
2447.708252 103.000000
2449.209473 -17.000000
2450.709961 51.000000
2452.209961 -10.000000
2453.709717 -97.000000
2455.208496 -162.000000
2456.707031 -161.000000
2458.204834 -150.000000
2459.702148 -263.000000
2461.198730 -95.000000
2462.695068 72.000000
2464.190674 47.000000
2465.685791 45.000000
2467.180176 44.000000
2468.674072 51.000000
2470.167480 181.000000
2471.660400 215.000000
2473.152588 -232.000000
2474.644287 -140.000000
2476.135498 -71.000000
2477.626221 -55.000000
2479.116211 117.000000
2480.605713 55.000000
2482.094727 -58.000000
2483.583008 64.000000
2485.070801 -162.000000
2486.558105 -143.000000
2488.044922 33.000000
2489.531006 -7.000000
2491.016602 -10.000000
2492.501709 -175.000000
2493.986328 -239.000000
2495.470215 -80.000000
2496.953613 -256.000000
2498.436523 -134.000000
2499.918701 -54.000000
2501.400391 146.000000
2502.881592 54.000000
2504.362305 53.000000
2505.842529 52.000000
2507.322021 121.000000
2508.801025 86.000000
2510.279297 52.000000
2511.757324 92.000000
2513.234619 -9.000000
2514.711426 47.000000
2516.187500 103.000000
2517.663330 -50.000000
2519.138428 -249.000000
2520.613037 47.000000
2522.086914 -213.000000
2523.560547 -145.000000
2525.033447 -78.000000
2526.505859 128.000000
2527.977539 166.000000
2529.448975 204.000000
2530.919678 103.000000
2532.389893 -23.000000
2533.859375 -109.000000
2535.328613 -98.000000
2536.797119 -88.000000
2538.265137 -135.000000
2539.732422 -133.000000
2541.199463 -132.000000
2542.665771 -149.000000
2544.131592 -167.000000
2545.596680 -203.000000
2547.061523 -108.000000
2548.525635 0.000000
2549.989258 -166.000000
2551.452148 41.000000
2552.914795 61.000000
2554.376709 -272.000000
2555.838135 12.000000
2557.299072 -58.000000
2558.759277 -15.000000
2560.219238 1.000000
2561.678467 18.000000
2563.137207 3.000000
2564.595215 64.000000
2566.052734 106.000000
2567.510010 18.000000
2568.966309 102.000000
2570.422363 -114.000000
2571.877930 -86.000000
2573.332764 -58.000000
2574.787109 -65.000000
2576.240723 -72.000000
2577.694092 0.000000
2579.146729 11.000000
2580.598877 -66.000000
2582.050537 -42.000000
2583.501709 -19.000000
2584.952148 -26.000000
2586.402100 131.000000
2587.851562 2.000000
2589.300537 -126.000000
2590.749023 -1.000000
2592.196777 117.000000
2593.644043 235.000000
2595.090820 68.000000
2596.536865 -221.000000
2597.982666 -103.000000
2599.427734 -13.000000
2600.872314 76.000000
2602.316406 -32.000000
2603.759766 -43.000000
2605.202881 -55.000000
2606.645264 -52.000000
2608.087158 -49.000000
2609.528320 32.000000
2610.969238 19.000000
2612.409424 -63.000000
2613.849121 -44.000000
2615.288330 -190.000000
2616.727051 -61.000000
2618.165039 -36.000000
2619.602783 -46.000000
2621.039795 -57.000000
2622.476318 -76.000000
2623.912109 -235.000000
2625.347656 -47.000000
2626.782471 -165.000000
2628.216797 103.000000
2629.650635 61.000000
2631.083740 19.000000
2632.516602 -34.000000
2633.948730 61.000000
2635.380371 156.000000
2636.811523 -50.000000
2638.242188 -24.000000
2639.672119 1.000000
2641.101562 -193.000000
2642.530518 -142.000000
2643.958984 94.000000
2645.386963 0.000000
2646.814209 3.000000
2648.241211 87.000000
2649.667480 368.000000
2651.093262 164.000000
2652.518555 81.000000
2653.943115 -1.000000
2655.367188 3.000000
2656.791016 126.000000
2658.214111 115.000000
2659.636475 105.000000
2661.058594 56.000000
2662.479980 218.000000
2663.901123 -126.000000
2665.321533 -83.000000
2666.741211 -41.000000
2668.160645 -42.000000
2669.579590 -43.000000
2670.997803 -103.000000
2672.415527 39.000000
2673.832764 215.000000
2675.249512 52.000000
2676.665527 -5.000000
2678.081299 -62.000000
2679.496338 -43.000000
2680.910889 -5.000000
2682.324951 33.000000
2683.738525 13.000000
2685.151367 -141.000000
2686.563965 207.000000
2687.975830 143.000000
2689.387207 -186.000000
2690.798096 -17.000000
2692.208496 -108.000000
2693.618164 -61.000000
2695.027344 -15.000000
2696.436279 -23.000000
2697.844482 85.000000
2699.251953 142.000000
2700.659180 132.000000
2702.065918 123.000000
2703.471924 210.000000
2704.877441 131.000000
2706.282471 -51.000000
2707.687012 -69.000000
2709.091064 -87.000000
2710.494385 30.000000
2711.897461 -44.000000
2713.299805 33.000000
2714.701660 39.000000
2716.103027 -53.000000
2717.503906 120.000000
2718.904053 181.000000
2720.303955 242.000000
2721.703125 178.000000
2723.101807 -284.000000
2724.500000 -204.000000
2725.897705 46.000000
2727.294678 43.000000
2728.691406 40.000000
2730.087402 -2.000000
2731.482910 -56.000000
2732.877930 -117.000000
2734.272461 -179.000000
2735.666504 -38.000000
2737.060059 -32.000000
2738.452881 -26.000000
2739.845215 -36.000000
2741.237061 80.000000
2742.628418 80.000000
2744.019287 81.000000
2745.409668 -56.000000
2746.799561 131.000000
2748.188721 -113.000000
2749.577393 -187.000000
2750.965576 36.000000
2752.353271 -87.000000
2753.740479 -4.000000
2755.127197 -18.000000
2756.513428 15.000000
2757.898926 48.000000
2759.283936 132.000000
2760.668457 85.000000
2762.052490 -146.000000
2763.436035 -55.000000
2764.819092 51.000000
2766.201660 -79.000000
2767.583496 26.000000
2768.964844 -59.000000
2770.345947 -51.000000
2771.726318 6.000000
2773.106201 -3.000000
2774.485596 -12.000000
2775.864258 41.000000
2777.242676 94.000000
2778.620361 -6.000000
2779.997559 -107.000000
2781.374512 -80.000000
2782.750732 -88.000000
2784.126465 37.000000
2785.501465 -156.000000
2786.876221 -349.000000
2788.250488 -149.000000
2789.624023 267.000000
2790.997070 101.000000
2792.369629 107.000000
2793.741699 114.000000
2795.113281 67.000000
2796.484375 20.000000
2797.854980 -137.000000
2799.224854 -208.000000
2800.594482 -229.000000
2801.963379 -254.000000
2803.331787 -121.000000
2804.699951 12.000000
2806.067383 65.000000
2807.434082 -63.000000
2808.800537 -14.000000
2810.166504 -118.000000
2811.531738 -223.000000
2812.896729 -198.000000
2814.260986 118.000000
2815.624756 54.000000
2816.988037 107.000000
2818.350830 160.000000
2819.713135 78.000000
2821.074951 -333.000000
2822.436035 -291.000000
2823.796875 -25.000000
2825.156982 53.000000
2826.516846 204.000000
2827.875977 -4.000000
2829.234619 -177.000000
2830.592773 -141.000000
2831.950439 10.000000
2833.307617 97.000000
2834.664062 184.000000
2836.020264 21.000000
2837.375732 -141.000000
2838.730957 -253.000000
2840.085449 -111.000000
2841.439453 68.000000
2842.792969 -58.000000
2844.145996 1.000000
2845.498535 60.000000
2846.850586 -192.000000
2848.202148 -210.000000
2849.552979 -103.000000
2850.903564 -147.000000
2852.253418 -54.000000
2853.603027 32.000000
2854.951904 218.000000
2856.300293 123.000000
2857.648193 64.000000
2858.995605 6.000000
2860.342529 -42.000000
2861.688721 139.000000
2863.034668 8.000000
2864.380127 39.000000
2865.724854 -65.000000
2867.069336 19.000000
2868.413086 -180.000000
2869.756348 71.000000
2871.099121 39.000000
2872.441406 20.000000
2873.783203 2.000000
2875.124512 -4.000000
2876.465332 135.000000
2877.805664 172.000000
2879.145508 -21.000000
2880.484619 -133.000000
2881.823486 -10.000000
2883.161621 147.000000
2884.499268 -44.000000
2885.836670 166.000000
2887.173340 222.000000
2888.509521 -144.000000
2889.845215 -131.000000
2891.180420 -314.000000
2892.515137 -271.000000
2893.849365 -181.000000
2895.182861 -67.000000
2896.516113 367.000000
2897.848633 179.000000
2899.180908 76.000000
2900.512451 -26.000000
2901.843750 42.000000
2903.174316 111.000000
2904.504395 107.000000
2905.833984 -109.000000
2907.163086 -41.000000
2908.491699 157.000000
2909.819824 122.000000
2911.147461 23.000000
2912.474609 -76.000000
2913.801270 -116.000000
2915.127441 -150.000000
2916.452881 -184.000000
2917.778076 -52.000000
2919.102539 -59.000000
2920.426758 -66.000000
2921.750244 -38.000000
2923.073242 -11.000000
2924.395996 33.000000
2925.718018 5.000000
2927.039551 -315.000000
2928.360596 -29.000000
2929.681152 -37.000000
2931.001221 33.000000
2932.320801 103.000000
2933.639893 163.000000
2934.958252 95.000000
2936.276367 -88.000000
2937.593994 -11.000000
2938.910889 -62.000000
2940.227539 -17.000000
2941.543457 -108.000000
2942.859131 39.000000
2944.174072 0.000000
2945.488770 -40.000000
2946.802734 -66.000000
2948.116211 -131.000000
2949.429199 43.000000
2950.741943 -55.000000
2952.053955 -2.000000
2953.365479 69.000000
2954.676514 -241.000000
2955.987061 -134.000000
2957.297119 -152.000000
2958.606689 -42.000000
2959.915527 105.000000
2961.224121 -18.000000
2962.532227 -189.000000
2963.839844 -101.000000
2965.146729 237.000000
2966.453369 147.000000
2967.759521 -15.000000
2969.064941 106.000000
2970.370117 -52.000000
2971.674561 77.000000
2972.978760 -2.000000
2974.282227 -266.000000
2975.585205 13.000000
2976.887939 173.000000
2978.189941 334.000000
2979.491455 4.000000
2980.792480 -26.000000
2982.093018 -57.000000
2983.393311 91.000000
2984.692871 37.000000
2985.991943 -16.000000
2987.290527 103.000000
2988.588623 55.000000
2989.886230 -133.000000
2991.183350 -152.000000
2992.479980 -157.000000
2993.776123 -105.000000
2995.071777 126.000000
2996.366699 57.000000
2997.661377 85.000000
2998.955566 76.000000
3000.249268 141.000000
3001.542236 -27.000000
3002.834961 57.000000
3004.127197 -179.000000
3005.418945 -51.000000
3006.709961 -17.000000
3008.000732 16.000000
3009.290771 51.000000
3010.580566 -18.000000
3011.869873 -70.000000
3013.158447 -220.000000
3014.446777 -20.000000
3015.734375 -136.000000
3017.021729 -82.000000
3018.308350 -30.000000
3019.594727 -58.000000
3020.880371 -86.000000
3022.165527 -211.000000
3023.450439 -117.000000
3024.734619 11.000000
3026.018555 2.000000
3027.301758 128.000000
3028.584473 254.000000
3029.866943 103.000000
3031.148682 -80.000000
3032.429932 -160.000000
3033.710938 107.000000
3034.991211 -124.000000
3036.270996 136.000000
3037.550293 42.000000
3038.829346 -337.000000
3040.107666 -122.000000
3041.385498 160.000000
3042.662842 247.000000
3043.939941 -86.000000
3045.216309 0.000000
3046.492188 -69.000000
3047.767578 -139.000000
3049.042725 -101.000000
3050.317139 -297.000000
3051.591064 -71.000000
3052.864502 -246.000000
3054.137451 -104.000000
3055.410156 -7.000000
3056.682129 -120.000000
3057.953613 -35.000000
3059.224609 -71.000000
3060.495361 -97.000000
3061.765381 -123.000000
3063.034912 -57.000000
3064.303955 298.000000
3065.572754 271.000000
3066.840820 21.000000
3068.108398 -87.000000
3069.375488 -196.000000
3070.642334 -57.000000
3071.908447 -8.000000
3073.174072 40.000000
3074.439209 -4.000000
3075.704102 -35.000000
3076.968262 -67.000000
3078.231934 -206.000000
3079.495361 62.000000
3080.758057 -121.000000
3082.020264 138.000000
3083.282227 12.000000
3084.543457 -38.000000
3085.804199 -88.000000
3087.064697 -138.000000
3088.324463 -199.000000
3089.583984 -38.000000
3090.842773 -243.000000
3092.101074 120.000000
3093.359131 -156.000000
3094.616455 -78.000000
3095.873535 -80.000000
3097.129883 -301.000000
3098.385986 132.000000
3099.641602 -257.000000
3100.896484 -262.000000
3102.151123 79.000000
3103.405029 -152.000000
3104.658691 -36.000000
3105.911865 -46.000000
3107.164307 7.000000
3108.416504 61.000000
3109.668213 54.000000
3110.919434 -16.000000
3112.169922 -86.000000
3113.420166 -19.000000
3114.669922 47.000000
3115.919189 59.000000
3117.167969 0.000000
3118.416260 99.000000
3119.664062 353.000000
3120.911377 117.000000
3122.158203 -147.000000
3123.404541 -151.000000
3124.650391 -155.000000
3125.895752 -77.000000
3127.140625 -106.000000
3128.385010 -27.000000
3129.629150 -30.000000
3130.872559 64.000000
3132.115479 -107.000000
3133.357910 85.000000
3134.600098 70.000000
3135.841553 -30.000000
3137.082764 -48.000000
3138.323242 -67.000000
3139.563477 -37.000000
3140.802979 153.000000
3142.042236 85.000000
3143.280762 17.000000
3144.519043 -12.000000
3145.756836 -27.000000
3146.993896 -42.000000
3148.230713 -164.000000
3149.467041 -286.000000
3150.702881 -217.000000
3151.938232 -149.000000
3153.173096 -106.000000
3154.407471 91.000000
3155.641357 129.000000
3156.874756 -68.000000
3158.107666 -246.000000
3159.340088 -327.000000
3160.572021 -153.000000
3161.803467 -239.000000
3163.034668 -221.000000
3164.265137 43.000000
3165.495361 285.000000
3166.724854 212.000000
3167.954102 140.000000
3169.182617 145.000000
3170.410889 23.000000
3171.638428 -90.000000
3172.865723 88.000000
3174.092529 -30.000000
3175.318848 64.000000
3176.544678 -28.000000
3177.770020 -42.000000
3178.994873 -56.000000
3180.219238 41.000000
3181.443115 70.000000
3182.666504 100.000000
3183.889404 -95.000000
3185.111816 46.000000
3186.333984 188.000000
3187.555420 150.000000
3188.776611 93.000000
3189.997070 116.000000
3191.217285 140.000000
3192.436768 143.000000
3193.656006 57.000000
3194.874756 -28.000000
3196.093018 59.000000
3197.310547 224.000000
3198.527832 196.000000
3199.744629 47.000000
3200.960938 -44.000000
3202.177002 -102.000000
3203.392334 -86.000000
3204.607178 139.000000
3205.821533 126.000000
3207.035645 113.000000
3208.249023 216.000000
3209.462158 -10.000000
3210.674561 -116.000000
3211.886719 -222.000000
3213.098389 -168.000000
3214.309570 -114.000000
3215.520264 -64.000000
3216.730469 -15.000000
3217.940186 109.000000
3219.149414 23.000000
3220.358154 -63.000000
3221.566406 -40.000000
3222.774414 -36.000000
3223.981689 -32.000000
3225.188721 64.000000
3226.395020 -133.000000
3227.601074 30.000000
3228.806396 -220.000000
3230.011475 -169.000000
3231.216064 107.000000
3232.420166 85.000000
3233.623779 64.000000
3234.826904 248.000000
3236.029541 246.000000
3237.231934 181.000000
3238.433594 -2.000000
3239.635010 79.000000
3240.835693 160.000000
3242.036133 68.000000
3243.235840 -201.000000
3244.435303 -114.000000
3245.634277 -77.000000
3246.832764 -41.000000
3248.030762 -139.000000
3249.228271 -70.000000
3250.425293 -2.000000
3251.622070 60.000000
3252.818115 2.000000
3254.013672 90.000000
3255.208984 -8.000000
3256.403809 158.000000
3257.597900 -46.000000
3258.791748 -218.000000
3259.985107 -82.000000
3261.177979 -139.000000
3262.370361 -196.000000
3263.562256 -318.000000
3264.753906 -52.000000
3265.944824 152.000000
3267.135498 5.000000
3268.325439 172.000000
3269.515137 -33.000000
3270.704346 139.000000
3271.893066 -58.000000
3273.081055 -245.000000
3274.269043 -238.000000
3275.456299 152.000000
3276.643066 -41.000000
3277.829346 83.000000
3279.015381 -220.000000
3280.200684 2.000000
3281.385742 240.000000
3282.570312 198.000000
3283.754395 -83.000000
3284.937988 -209.000000
3286.121094 -276.000000
3287.303711 -288.000000
3288.485840 43.000000
3289.667480 -159.000000
3290.848877 111.000000
3292.029541 16.000000
3293.209961 -78.000000
3294.389893 -100.000000
3295.569336 -63.000000
3296.748291 -27.000000
3297.926758 -170.000000
3299.104736 -252.000000
3300.282227 -335.000000
3301.459473 -47.000000
3302.635986 -47.000000
3303.812256 -47.000000
3304.988037 -75.000000
3306.163330 -83.000000
3307.338135 170.000000
3308.512451 89.000000
3309.686279 78.000000
3310.859619 -41.000000
3312.032715 217.000000
3313.205078 204.000000
3314.377197 192.000000
3315.548828 201.000000
3316.719971 -30.000000
3317.890625 -142.000000
3319.060791 -83.000000
3320.230469 -195.000000
3321.399902 -307.000000
3322.568604 -89.000000
3323.737061 -233.000000
3324.904785 -86.000000
3326.072266 142.000000
3327.239258 96.000000
3328.405762 50.000000
3329.572021 148.000000
3330.737549 -55.000000
3331.902588 -144.000000
3333.067383 -234.000000
3334.231689 -279.000000
3335.395508 -16.000000
3336.558838 -259.000000
3337.721680 159.000000
3338.884033 72.000000
3340.045898 176.000000
3341.207520 179.000000
3342.368408 5.000000
3343.529053 -168.000000
3344.689209 -252.000000
3345.848877 -113.000000
3347.008057 -183.000000
3348.166748 22.000000
3349.324951 19.000000
3350.482910 -30.000000
3351.640381 -120.000000
3352.797119 -210.000000
3353.953613 -283.000000
3355.109619 23.000000
3356.265137 329.000000
3357.420410 154.000000
3358.574951 -293.000000
3359.729248 -56.000000
3360.882812 -64.000000
3362.036133 -73.000000
3363.188965 -22.000000
3364.341309 -39.000000
3365.493164 -56.000000
3366.644775 -127.000000
3367.795654 289.000000
3368.946289 256.000000
3370.096436 224.000000
3371.246094 96.000000
3372.395264 -290.000000
3373.543945 -260.000000
3374.692139 325.000000
3375.840088 -122.000000
3376.987305 -14.000000
3378.134277 123.000000
3379.280762 273.000000
3380.426758 20.000000
3381.572266 85.000000
3382.717529 -341.000000
3383.862061 96.000000
3385.006348 43.000000
3386.150146 66.000000
3387.293457 -270.000000
3388.436279 -174.000000
3389.578613 -171.000000
3390.720459 -169.000000
3391.862061 -64.000000
3393.003174 79.000000
3394.143555 -190.000000
3395.283691 -41.000000
3396.423340 -191.000000
3397.562744 -93.000000
3398.701416 5.000000
3399.839844 -19.000000
3400.977783 -44.000000
3402.114990 -47.000000
3403.251953 23.000000
3404.388672 -42.000000
3405.524658 70.000000
3406.660156 0.000000
3407.795410 -112.000000
3408.930176 -225.000000
3410.064453 -258.000000
3411.198242 -243.000000
3412.331543 -229.000000
3413.464600 -299.000000
3414.596924 -94.000000
3415.729004 -185.000000
3416.860596 -48.000000
3417.991699 -97.000000
3419.122314 -330.000000
3420.252686 9.000000
3421.382324 -326.000000
3422.511719 70.000000
3423.640625 229.000000
3424.769043 -78.000000
3425.896973 -386.000000
3427.024658 -334.000000
3428.151611 -230.000000
3429.278320 -126.000000
3430.404541 -156.000000
3431.530273 -161.000000
3432.655518 -25.000000
3433.780273 -111.000000
3434.904785 -111.000000
3436.028564 -231.000000
3437.152100 -337.000000
3438.275146 -120.000000
3439.397949 86.000000
3440.520020 86.000000
3441.641602 70.000000
3442.762939 55.000000
3443.883789 91.000000
3445.004150 127.000000
3446.124023 84.000000
3447.243652 -9.000000
3448.362549 -268.000000
3449.481201 -193.000000
3450.599365 -95.000000
3451.717041 -238.000000
3452.834229 -106.000000
3453.951172 -159.000000
3455.067383 15.000000
3456.183350 -83.000000
3457.298828 120.000000
3458.413818 0.000000
3459.528564 159.000000
3460.642578 146.000000
3461.756348 134.000000
3462.869629 178.000000
3463.982422 -56.000000
3465.094727 -329.000000
3466.206543 -134.000000
3467.318115 216.000000
3468.429199 332.000000
3469.539795 449.000000
3470.649902 257.000000
3471.759521 122.000000
3472.868652 -12.000000
3473.977539 6.000000
3475.085938 66.000000
3476.193848 -113.000000
3477.301270 -163.000000
3478.408447 333.000000
3479.514893 236.000000
3480.621094 271.000000
3481.726807 378.000000
3482.832031 486.000000
3483.937012 379.000000
3485.041260 152.000000
3486.145264 -75.000000
3487.248779 -232.000000
3488.351807 -389.000000
3489.454346 -209.000000
3490.556641 -60.000000
3491.658203 88.000000
3492.759521 -174.000000
3493.860352 -73.000000
3494.960693 28.000000
3496.060791 -29.000000
3497.160156 -86.000000
3498.259277 168.000000
3499.357910 140.000000
3500.456299 157.000000
3501.553955 175.000000
3502.651367 329.000000
3503.748047 -83.000000
3504.844482 -358.000000
3505.940674 -137.000000
3507.036133 131.000000
3508.131348 288.000000
3509.225830 -62.000000
3510.320068 317.000000
3511.413818 80.000000
3512.507324 -353.000000
3513.600098 -351.000000
3514.692627 271.000000
3515.784668 -41.000000
3516.876221 32.000000
3517.967529 106.000000
3519.058105 80.000000
3520.148438 -193.000000
3521.238281 109.000000
3522.327637 188.000000
3523.416748 268.000000
3524.505127 308.000000
3525.593262 292.000000
3526.680908 204.000000
3527.768311 117.000000
3528.854980 120.000000
3529.941406 310.000000
3531.027100 -357.000000
3532.112793 -159.000000
3533.197754 -60.000000
3534.282227 39.000000
3535.366455 316.000000
3536.450195 199.000000
3537.533447 269.000000
3538.616211 -6.000000
3539.698730 186.000000
3540.780762 183.000000
3541.862305 252.000000
3542.943359 -36.000000
3544.023926 -134.000000
3545.104248 -232.000000
3546.183838 -45.000000
3547.263184 8.000000
3548.342285 62.000000
3549.420654 134.000000
3550.498779 -121.000000
3551.576416 -141.000000
3552.653564 -161.000000
3553.730225 -141.000000
3554.806641 -159.000000
3555.882324 -178.000000
3556.957764 -151.000000
3558.032959 -125.000000
3559.107422 -205.000000
3560.181641 3.000000
3561.255127 248.000000
3562.328369 63.000000
3563.401367 -108.000000
3564.473633 -279.000000
3565.545654 -93.000000
3566.617188 233.000000
3567.688232 -66.000000
3568.759033 -73.000000
3569.829102 -80.000000
3570.898926 -217.000000
3571.968262 -144.000000
3573.037109 -258.000000
3574.105713 -114.000000
3575.173828 -37.000000
3576.241455 40.000000
3577.308594 151.000000
3578.375244 -53.000000
3579.441650 45.000000
3580.507568 144.000000
3581.572998 242.000000
3582.637939 -148.000000
3583.702637 -77.000000
3584.766846 -6.000000
3585.830566 -440.000000
3586.893799 -50.000000
3587.956543 -8.000000
3589.019043 33.000000
3590.081055 200.000000
3591.142578 239.000000
3592.203857 279.000000
3593.264404 266.000000
3594.324707 309.000000
3595.384521 -237.000000
3596.444092 30.000000
3597.502930 -109.000000
3598.561523 -390.000000
3599.619629 -3.000000
3600.677490 108.000000
3601.734619 220.000000
3602.791504 227.000000
3603.847900 -62.000000
3604.903809 -234.000000
3605.959473 -197.000000
3607.014404 -171.000000
3608.069092 -145.000000
3609.123535 -486.000000
3610.177246 -41.000000
3611.230713 92.000000
3612.283691 226.000000
3613.336182 237.000000
3614.388184 200.000000
3615.439941 -68.000000
3616.491211 108.000000
3617.541992 -59.000000
3618.592285 -519.000000
3619.642334 -337.000000
3620.691895 10.000000
3621.740967 38.000000
3622.789551 -9.000000
3623.837891 -56.000000
3624.885742 53.000000
3625.933105 116.000000
3626.979980 -60.000000
3628.026611 70.000000
3629.072754 -110.000000
3630.118408 -28.000000
3631.163574 -170.000000
3632.208496 -178.000000
3633.252930 -71.000000
3634.296875 -82.000000
3635.340332 -93.000000
3636.383545 -240.000000
3637.426025 -470.000000
3638.468506 -425.000000
3639.510254 -381.000000
3640.551758 -385.000000
3641.592529 -268.000000
3642.633301 -151.000000
3643.673340 -101.000000
3644.713135 195.000000
3645.752197 368.000000
3646.791260 275.000000
3647.829590 97.000000
3648.867676 224.000000
3649.905029 344.000000
3650.942383 465.000000
3651.979004 629.000000
3653.015381 203.000000
3654.051270 513.000000
3655.086670 196.000000
3656.121582 27.000000
3657.156250 -142.000000
3658.190430 -237.000000
3659.224121 -25.000000
3660.257568 -102.000000
3661.290283 -149.000000
3662.322754 -197.000000
3663.354980 -190.000000
3664.386475 -66.000000
3665.417725 -161.000000
3666.448486 246.000000
3667.478760 -3.000000
3668.508789 -374.000000
3669.538330 -328.000000
3670.567383 -60.000000
3671.595947 -220.000000
3672.624268 -69.000000
3673.652100 -187.000000
3674.679443 52.000000
3675.706543 291.000000
3676.732910 250.000000
3677.759033 112.000000
3678.784912 -25.000000
3679.810059 -166.000000
3680.834961 -83.000000
3681.859375 0.000000
3682.883301 -114.000000
3683.906982 -166.000000
3684.930176 -385.000000
3685.952881 -240.000000
3686.975098 -162.000000
3687.997070 -85.000000
3689.018555 -144.000000
3690.039551 178.000000
3691.060303 96.000000
3692.080566 14.000000
3693.100342 -96.000000
3694.119629 -191.000000
3695.138672 -287.000000
3696.157227 -253.000000
3697.175293 -381.000000
3698.192871 -7.000000
3699.210205 -72.000000
3700.227051 143.000000
3701.243408 -140.000000
3702.259521 -142.000000
3703.275146 -183.000000
3704.290283 240.000000
3705.304932 -30.000000
3706.319336 -300.000000
3707.333252 -161.000000
3708.346680 301.000000
3709.359619 -56.000000
3710.372314 -17.000000
3711.384521 22.000000
3712.396484 -22.000000
3713.407715 74.000000
3714.418701 170.000000
3715.429199 177.000000
3716.439453 -98.000000
3717.449219 -125.000000
3718.458496 -239.000000
3719.467285 -176.000000
3720.475830 -114.000000
3721.483887 -258.000000
3722.491455 -167.000000
3723.498535 -76.000000
3724.505371 -126.000000
3725.511719 -262.000000
3726.517578 -398.000000
3727.523193 -345.000000
3728.528320 -433.000000
3729.532959 -522.000000
3730.537354 -557.000000
3731.541016 96.000000
3732.544678 38.000000
3733.547607 -50.000000
3734.550293 -139.000000
3735.552490 -58.000000
3736.554199 -104.000000
3737.555420 -151.000000
3738.556396 128.000000
3739.556885 407.000000
3740.557129 470.000000
3741.556641 81.000000
3742.555908 200.000000
3743.554932 -112.000000
3744.553223 156.000000
3745.551270 -58.000000
3746.548828 -60.000000
3747.546143 -62.000000
3748.542969 -247.000000
3749.539307 -266.000000
3750.535156 -90.000000
3751.530762 413.000000
3752.525879 169.000000
3753.520508 -323.000000
3754.514648 -88.000000
3755.508545 146.000000
3756.502197 237.000000
3757.495117 328.000000
3758.487793 158.000000
3759.479980 140.000000
3760.471680 -334.000000
3761.463135 -158.000000
3762.454102 -401.000000
3763.444580 -270.000000
3764.434814 -139.000000
3765.424561 -502.000000
3766.413818 -372.000000
3767.402588 -243.000000
3768.391113 -4.000000
3769.379150 -431.000000
3770.366699 -52.000000
3771.354004 -160.000000
3772.340820 -268.000000
3773.327393 -429.000000
3774.313232 -405.000000
3775.298828 -14.000000
3776.283936 -136.000000
3777.268799 -48.000000
3778.253174 205.000000
3779.237061 58.000000
3780.220459 -88.000000
3781.203613 584.000000
3782.186279 165.000000
3783.168701 185.000000
3784.150391 206.000000
3785.131836 -28.000000
3786.113037 -501.000000
3787.093506 473.000000
3788.073730 400.000000
3789.053711 -423.000000
3790.032959 -85.000000
3791.011963 -348.000000
3791.990479 -227.000000
3792.968750 -176.000000
3793.946533 -125.000000
3794.923828 -138.000000
3795.900635 -369.000000
3796.877197 -296.000000
3797.853271 -4.000000
3798.829102 -67.000000
3799.804199 -130.000000
3800.779053 118.000000
3801.753662 232.000000
3802.727783 -69.000000
3803.701416 48.000000
3804.674561 -44.000000
3805.647461 -177.000000
3806.619873 -310.000000
3807.591797 -220.000000
3808.563232 -396.000000
3809.534424 -4.000000
3810.505371 249.000000
3811.475586 364.000000
3812.445557 -4.000000
3813.415039 176.000000
3814.384277 -131.000000
3815.353027 -397.000000
3816.321289 413.000000
3817.289062 123.000000
3818.256592 119.000000
3819.223633 -16.000000
3820.190430 -152.000000
3821.156738 -194.000000
3822.122559 -53.000000
3823.087891 -397.000000
3824.052979 54.000000
3825.017578 -343.000000
3825.981934 261.000000
3826.945557 16.000000
3827.909180 -99.000000
3828.872070 -49.000000
3829.834717 0.000000
3830.796875 -145.000000
3831.758545 -559.000000
3832.719971 -363.000000
3833.680908 -121.000000
3834.641357 121.000000
3835.601562 41.000000
3836.561279 -234.000000
3837.520752 319.000000
3838.479492 -88.000000
3839.437988 88.000000
3840.396240 265.000000
3841.354004 147.000000
3842.311279 -612.000000
3843.268066 -596.000000
3844.224609 378.000000
3845.180664 -417.000000
3846.136230 -73.000000
3847.091553 -101.000000
3848.046387 -144.000000
3849.000977 -187.000000
3849.954834 -247.000000
3850.908447 -29.000000
3851.861816 -671.000000
3852.814697 -295.000000
3853.767090 -85.000000
3854.718994 124.000000
3855.670654 -85.000000
3856.621826 -173.000000
3857.572510 -262.000000
3858.522949 -263.000000
3859.472900 -319.000000
3860.422607 -239.000000
3861.371826 -160.000000
3862.320557 -277.000000
3863.268799 -147.000000
3864.216797 82.000000
3865.164307 117.000000
3866.111572 300.000000
3867.058350 274.000000
3868.004639 -87.000000
3868.950684 137.000000
3869.895996 362.000000
3870.841309 -48.000000
3871.785889 159.000000
3872.730225 -240.000000
3873.674316 -251.000000
3874.617676 -263.000000
3875.560791 -140.000000
3876.503418 272.000000
3877.445801 171.000000
3878.387695 -422.000000
3879.329346 -339.000000
3880.270264 -293.000000
3881.210938 -247.000000
3882.151367 88.000000
3883.091309 336.000000
3884.030762 398.000000
3884.969727 190.000000
3885.908447 283.000000
3886.846680 110.000000
3887.784668 -159.000000
3888.721924 -559.000000
3889.659180 -415.000000
3890.595703 -271.000000
3891.531982 -309.000000
3892.468018 97.000000
3893.403320 17.000000
3894.338379 -252.000000
3895.272949 111.000000
3896.207275 -156.000000
3897.141113 -107.000000
3898.074707 -431.000000
3899.007568 -131.000000
3899.940430 -205.000000
3900.872559 -300.000000
3901.804443 -237.000000
3902.735840 -174.000000
3903.666992 -103.000000
3904.597656 112.000000
3905.527832 224.000000
3906.457520 31.000000
3907.386963 103.000000
3908.316162 -276.000000
3909.244629 -148.000000
3910.173096 -222.000000
3911.100830 92.000000
3912.028320 -22.000000
3912.955322 -13.000000
3913.881836 -103.000000
3914.808105 85.000000
3915.733887 -117.000000
3916.659424 -280.000000
3917.584473 -61.000000
3918.509033 -327.000000
3919.433350 -363.000000
3920.357178 -6.000000
3921.280762 350.000000
3922.203613 100.000000
3923.126221 157.000000
3924.048584 27.000000
3924.970459 114.000000
3925.891846 87.000000
3926.812988 64.000000
3927.733643 41.000000
3928.653809 -46.000000
3929.573730 -133.000000
3930.493164 -110.000000
3931.412109 -179.000000
3932.330811 -133.000000
3933.249023 249.000000
3934.166992 157.000000
3935.084473 257.000000
3936.001465 357.000000
3936.918213 148.000000
3937.834473 41.000000
3938.750244 -65.000000
3939.665771 -293.000000
3940.580811 -279.000000
3941.495605 -265.000000
3942.409668 -169.000000
3943.323730 -74.000000
3944.237061 -88.000000
3945.150146 -331.000000
3946.062988 -322.000000
3946.975098 -200.000000
3947.887207 -79.000000
3948.798584 42.000000
3949.709717 206.000000
3950.620361 370.000000
3951.530762 319.000000
3952.440674 68.000000
3953.350098 -183.000000
3954.259277 131.000000
3955.167969 -225.000000
3956.076416 49.000000
3956.984375 -522.000000
3957.891846 258.000000
3958.799072 192.000000
3959.705811 376.000000
3960.612061 202.000000
3961.518066 -511.000000
3962.423584 -66.000000
3963.328857 -146.000000
3964.233398 -160.000000
3965.137939 -52.000000
3966.041992 -300.000000
3966.945557 -208.000000
3967.848633 -151.000000
3968.751465 260.000000
3969.653809 345.000000
3970.555908 431.000000
3971.457520 583.000000
3972.358643 204.000000
3973.259521 -147.000000
3974.159912 88.000000
3975.060059 -318.000000
3975.959473 -142.000000
3976.858887 66.000000
3977.757568 -1032.000000
3978.656250 -842.000000
3979.554199 235.000000
3980.451904 -600.000000
3981.349121 -548.000000
3982.246094 -85.000000
3983.142578 -154.000000
3984.038574 -224.000000
3984.934326 -324.000000
3985.829590 181.000000
3986.724609 380.000000
3987.619141 189.000000
3988.513184 502.000000
3989.406982 268.000000
3990.300293 72.000000
3991.193115 333.000000
3992.085693 168.000000
3992.978027 389.000000
3993.869629 399.000000
3994.760986 409.000000
3995.652100 53.000000
3996.542725 293.000000
3997.432861 -303.000000
3998.322754 -304.000000
3999.212158 -202.000000
4000.101074 9.000000
4000.989746 150.000000
4001.877930 435.000000
4002.765869 418.000000
4003.653320 402.000000
4004.540283 179.000000
4005.427002 -238.000000
4006.313232 -306.000000
4007.199219 282.000000
4008.084717 -4.000000
4008.969727 317.000000
4009.854492 638.000000
4010.738770 361.000000
4011.622803 -444.000000
4012.506348 -166.000000
4013.389404 -19.000000
4014.272217 127.000000
4015.154541 -53.000000
4016.036621 -122.000000
4016.918213 -294.000000
4017.799316 -66.000000
4018.680176 -226.000000
4019.560547 -246.000000
4020.440674 202.000000
4021.320312 402.000000
4022.199463 602.000000
4023.078369 350.000000
4023.957031 -10.000000
4024.834961 -371.000000
4025.712646 -475.000000
4026.590088 24.000000
4027.466797 585.000000
4028.343506 74.000000
4029.219482 340.000000
4030.095215 -340.000000
4030.970703 -44.000000
4031.845703 -318.000000
4032.720215 -498.000000
4033.594482 -678.000000
4034.468262 -359.000000
4035.341553 219.000000
4036.214600 107.000000
4037.087158 667.000000
4037.959473 340.000000
4038.831299 -185.000000
4039.702881 130.000000
4040.573975 -483.000000
4041.444580 -255.000000
4042.314941 -230.000000
4043.184814 301.000000
4044.054443 -502.000000
4044.923584 145.000000
4045.792236 885.000000
4046.660645 543.000000
4047.528564 80.000000
4048.396240 -141.000000
4049.263428 -264.000000
4050.130127 506.000000
4050.996582 287.000000
4051.862793 -70.000000
4052.728271 177.000000
4053.593506 -292.000000
4054.458496 292.000000
