300.00000	493.70709
302.00000	404.42963
304.00000	324.51431
306.00000	294.60626
308.00000	307.43582
310.00000	246.60069
312.00000	273.45801
314.00000	345.92123
316.00000	378.61334
318.00000	395.54004
320.00000	371.51761
322.00000	369.58994
324.00000	414.29208
326.00000	468.45010
328.00000	514.36902
330.00000	562.89142
332.00000	691.63318
334.00000	968.86407
336.00000	1372.87927
338.00000	1801.01819
340.00000	2097.09277
342.00000	2147.44629
344.00000	1946.10840
346.00000	1595.15613
348.00000	1234.17200
350.00000	955.69507
352.00000	779.24219
354.00000	673.80719
356.00000	609.41553
358.00000	567.41028
360.00000	545.24225
362.00000	549.29852
364.00000	573.10461
366.00000	587.32733
368.00000	614.96698
370.00000	693.67145
372.00000	798.86188
374.00000	923.88788
376.00000	994.81824
378.00000	957.43768
380.00000	841.26111
382.00000	666.54120
384.00000	494.25714
386.00000	386.06238
388.00000	335.92627
390.00000	266.83444
392.00000	247.99045
394.00000	205.83524
396.00000	135.86266
398.00000	208.70120
400.00000	139.78075
402.00000	80.47857
404.00000	143.12950
406.00000	164.35674
408.00000	196.66447
410.00000	219.34665
412.00000	242.55867
414.00000	283.28043
416.00000	287.80890
418.00000	289.78830
420.00000	211.32545
422.00000	105.43326
424.00000	152.68237
426.00000	139.74792
428.00000	99.89848
430.00000	85.09117
432.00000	66.42332
434.00000	87.22881
436.00000	161.38474
438.00000	198.75175
440.00000	165.99467
442.00000	159.74084
444.00000	122.06664
446.00000	111.33339
448.00000	120.31743
450.00000	89.00382
452.00000	156.53346
454.00000	192.16518
456.00000	202.16510
458.00000	283.55991
460.00000	355.00574
462.00000	378.27628
464.00000	389.15433
466.00000	380.30341
468.00000	303.84280
470.00000	254.61118
472.00000	232.97803
474.00000	249.02895
476.00000	299.55417
478.00000	275.03400
480.00000	216.67297
482.00000	163.73123
484.00000	128.55791
486.00000	128.67926
488.00000	153.04143
490.00000	144.10281
492.00000	116.59960
494.00000	126.38342
496.00000	118.35838
498.00000	139.18340
500.00000	154.40717
502.00000	127.40131
504.00000	131.74539
506.00000	83.73946
508.00000	82.48941
510.00000	154.84175
512.00000	163.03694
514.00000	173.83556
516.00000	182.67981
518.00000	189.72812
520.00000	214.74057
522.00000	229.06129
524.00000	207.03175
526.00000	170.49727
528.00000	151.51251
530.00000	152.56342
532.00000	167.13448
534.00000	173.59543
536.00000	160.43961
538.00000	134.30560
540.00000	108.12289
542.00000	113.33721
544.00000	119.31953
546.00000	118.06361
548.00000	162.28152
550.00000	116.30121
552.00000	100.81168
554.00000	155.80382
556.00000	131.70081
558.00000	136.40752
560.00000	184.35802
562.00000	220.29129
564.00000	213.86694
566.00000	196.86417
568.00000	172.58598
570.00000	162.29282
572.00000	177.33153
574.00000	190.59857
576.00000	179.28128
578.00000	166.13641
580.00000	169.32259
582.00000	183.74817
584.00000	202.48045
586.00000	191.51199
588.00000	169.15466
590.00000	163.24995
592.00000	157.31238
594.00000	169.18237
596.00000	166.74205
598.00000	157.52350
600.00000	184.47545
602.00000	188.14861
604.00000	189.25349
606.00000	187.93608
608.00000	169.67203
610.00000	168.33278
612.00000	162.33298
614.00000	153.40417
616.00000	161.63879
618.00000	187.80835
620.00000	203.21622
622.00000	193.87007
624.00000	177.28557
626.00000	177.60057
628.00000	187.71803
630.00000	202.33937
632.00000	220.50133
634.00000	230.43675
636.00000	213.48622
638.00000	193.45456
640.00000	202.77066
642.00000	219.41940
644.00000	203.51575
646.00000	204.67392
648.00000	204.41835
650.00000	213.00822
652.00000	229.94659
654.00000	187.88850
656.00000	162.57739
658.00000	169.23001
660.00000	199.75195
662.00000	258.40738
664.00000	265.85764
666.00000	245.16084
668.00000	229.76233
670.00000	224.91069
672.00000	246.57832
674.00000	261.03857
676.00000	237.45200
678.00000	196.03014
680.00000	193.30122
682.00000	220.59116
684.00000	258.75983
686.00000	274.03754
688.00000	252.07257
690.00000	249.04395
692.00000	228.56621
694.00000	194.07504
696.00000	180.47885
698.00000	177.83473
700.00000	195.71623
702.00000	210.24663
704.00000	192.99043
706.00000	161.49637
708.00000	178.54147
710.00000	195.80438
712.00000	202.92995
714.00000	218.59644
716.00000	194.21980
718.00000	219.72278
720.00000	233.82213
722.00000	183.34883
724.00000	169.39583
726.00000	159.29715
728.00000	171.77205
730.00000	193.73137
732.00000	176.13162
734.00000	154.36455
736.00000	139.13905
738.00000	145.75983
740.00000	176.46318
742.00000	199.92365
744.00000	218.96881
746.00000	205.70120
748.00000	211.95084
750.00000	302.11411
752.00000	287.60815
754.00000	217.21225
756.00000	169.42885
758.00000	161.18919
760.00000	216.51573
762.00000	273.81522
764.00000	260.03940
766.00000	200.05392
768.00000	198.80078
770.00000	230.27890
772.00000	269.67059
774.00000	275.52423
776.00000	242.12537
778.00000	272.58728
780.00000	284.43716
782.00000	247.17015
784.00000	203.30183
786.00000	172.04227
788.00000	179.38925
790.00000	195.52077
792.00000	207.81003
794.00000	246.15260
796.00000	300.65952
798.00000	346.08173
800.00000	358.01508
802.00000	334.63120
804.00000	306.26245
806.00000	292.74194
808.00000	315.29742
810.00000	346.97565
812.00000	326.27328
814.00000	290.80975
816.00000	257.00522
818.00000	239.91521
820.00000	256.88437
822.00000	282.41724
824.00000	243.16879
826.00000	178.57437
828.00000	163.34398
830.00000	182.88031
832.00000	214.29985
834.00000	219.23808
836.00000	210.75975
838.00000	225.13713
840.00000	205.29355
842.00000	184.12041
844.00000	182.43701
846.00000	182.44678
848.00000	177.25195
850.00000	169.67538
852.00000	178.20148
854.00000	199.05133
856.00000	210.33138
858.00000	239.61681
860.00000	234.62250
862.00000	233.12038
864.00000	288.89575
866.00000	271.89636
868.00000	234.49995
870.00000	216.10100
872.00000	216.58984
874.00000	240.72316
876.00000	236.20483
878.00000	194.63319
880.00000	153.07132
882.00000	142.74063
884.00000	140.02101
886.00000	130.83565
888.00000	116.12180
890.00000	111.05779
892.00000	136.28448
894.00000	177.42856
896.00000	159.48410
898.00000	110.36835
900.00000	141.17700
902.00000	144.40547
904.00000	125.65226
906.00000	105.31668
908.00000	93.92767
910.00000	143.47127
912.00000	158.30463
914.00000	147.56985
916.00000	174.19099
918.00000	210.85847
920.00000	188.27365
922.00000	166.90924
924.00000	163.14700
926.00000	124.56371
928.00000	108.25993
930.00000	123.99251
932.00000	138.93697
934.00000	126.78294
936.00000	100.59467
938.00000	83.18098
940.00000	91.77570
942.00000	113.47601
944.00000	114.36697
946.00000	93.54140
948.00000	76.89575
950.00000	105.69357
952.00000	156.37465
954.00000	119.79269
956.00000	104.51812
958.00000	117.02275
960.00000	115.80755
962.00000	119.22369
964.00000	73.19159
966.00000	95.13165
968.00000	145.42540
970.00000	83.68990
972.00000	78.35685
974.00000	102.71995
976.00000	117.07819
978.00000	121.02673
980.00000	111.93891
982.00000	147.96857
984.00000	163.39055
986.00000	126.23333
988.00000	105.59924
990.00000	96.42481
992.00000	125.20818
994.00000	148.59024
996.00000	115.07720
998.00000	87.42798
1000.00000	71.06415
1002.00000	104.02074
1004.00000	152.47574
1006.00000	121.91211
1008.00000	144.77782
1010.00000	171.04327
1012.00000	149.24756
1014.00000	114.34609
1016.00000	73.63662
1018.00000	99.91628
1020.00000	170.35571
1022.00000	181.28484
1024.00000	101.52744
1026.00000	95.97610
1028.00000	140.52840
1030.00000	168.56558
1032.00000	173.36275
1034.00000	93.14532
1036.00000	76.19260
1038.00000	119.72803
1040.00000	123.84350
1042.00000	152.19897
1044.00000	170.97372
1046.00000	165.03577
1048.00000	132.43849
1050.00000	78.43469
1052.00000	85.77084
1054.00000	134.38170
1056.00000	164.49915
1058.00000	162.94122
1060.00000	168.98471
1062.00000	145.78435
1064.00000	160.40433
1066.00000	245.75369
1068.00000	276.55450
1070.00000	260.18613
1072.00000	286.30948
1074.00000	389.37280
1076.00000	537.62878
1078.00000	749.35724
1080.00000	988.94202
1082.00000	1190.45386
1084.00000	1292.07166
1086.00000	1271.38147
1088.00000	1183.57263
1090.00000	959.63159
1092.00000	654.10693
1094.00000	482.86771
1096.00000	362.80933
1098.00000	260.51764
1100.00000	225.02969
1102.00000	269.02838
1104.00000	283.07309
1106.00000	252.69846
1108.00000	209.59335
1110.00000	193.56993
1112.00000	213.26877
1114.00000	191.26668
1116.00000	181.10837
1118.00000	176.86897
1120.00000	109.62793
1122.00000	87.44503
1124.00000	110.82846
1126.00000	127.67540
1128.00000	122.28494
1130.00000	124.60553
1132.00000	95.68855
1134.00000	115.12698
1136.00000	194.32472
1138.00000	215.14377
1140.00000	207.57811
1142.00000	184.47899
1144.00000	169.93779
1146.00000	171.79607
1148.00000	139.12239
1150.00000	139.95984
1152.00000	170.67859
1154.00000	184.18231
1156.00000	177.70265
1158.00000	160.24524
1160.00000	209.55829
1162.00000	269.66910
1164.00000	209.51578
1166.00000	126.17554
1168.00000	114.02367
1170.00000	134.01552
1172.00000	127.84146
1174.00000	142.14014
1176.00000	162.14989
1178.00000	201.84985
1180.00000	247.80154
1182.00000	242.20886
1184.00000	193.49083
1186.00000	183.08569
1188.00000	205.68271
1190.00000	204.01511
1192.00000	201.80399
1194.00000	185.28937
1196.00000	179.00114
1198.00000	204.34071
1200.00000	227.98268
1202.00000	211.51321
1204.00000	156.90302
1206.00000	109.65310
1208.00000	116.16864
1210.00000	157.76990
1212.00000	156.95303
1214.00000	157.30170
1216.00000	162.21208
1218.00000	58.70023
1220.00000	102.42209
1222.00000	183.89317
1224.00000	141.05013
1226.00000	65.72697
1228.00000	72.59231
1230.00000	80.70365
1232.00000	89.91646
1234.00000	141.25166
1236.00000	139.04086
1238.00000	151.06366
1240.00000	179.47734
1242.00000	197.20740
1244.00000	215.89758
1246.00000	199.41832
1248.00000	208.76753
1250.00000	213.92320
1252.00000	156.10162
1254.00000	165.17708
1256.00000	151.94772
1258.00000	138.27937
1260.00000	172.84966
1262.00000	176.13800
1264.00000	216.22726
1266.00000	244.42548
1268.00000	210.86813
1270.00000	181.57446
1272.00000	245.83220
1274.00000	280.57199
1276.00000	237.26692
1278.00000	202.39926
1280.00000	224.62518
1282.00000	192.93736
1284.00000	202.48950
1286.00000	262.44568
1288.00000	205.48729
1290.00000	216.16058
1292.00000	236.06741
1294.00000	250.54433
1296.00000	272.08197
1298.00000	127.38243
1300.00000	179.65372
1302.00000	268.77121
1304.00000	200.15549
1306.00000	285.54160
1308.00000	259.66678
1310.00000	255.18846
1312.00000	304.31961
1314.00000	210.13959
1316.00000	184.18864
1318.00000	226.54219
1320.00000	268.15167
1322.00000	273.55621
1324.00000	245.07030
1326.00000	275.31836
1328.00000	308.34601
1330.00000	249.08696
1332.00000	182.75688
1334.00000	379.85153
1336.00000	482.70459
1338.00000	325.44348
1340.00000	178.09154
1342.00000	217.97693
1344.00000	275.18515
1346.00000	214.34138
1348.00000	141.54810
1350.00000	228.12781
1352.00000	208.35251
1354.00000	192.66652
1356.00000	239.53989
1358.00000	200.99117
1360.00000	159.11650
1362.00000	172.01425
1364.00000	215.67419
1366.00000	221.53017
1368.00000	161.70049
1370.00000	138.60066
1372.00000	217.67032
1374.00000	290.42526
1376.00000	209.84286
1378.00000	145.56709
1380.00000	126.87547
1382.00000	171.15160
1384.00000	258.80701
1386.00000	231.81480
1388.00000	180.71268
1390.00000	203.22993
1392.00000	238.27364
1394.00000	168.34184
1396.00000	162.99663
1398.00000	173.04277
1400.00000	159.96559
1402.00000	168.43919
1404.00000	127.47267
1406.00000	150.14558
1408.00000	198.23886
1410.00000	157.95753
1412.00000	97.02386
1414.00000	158.91428
1416.00000	168.00609
1418.00000	109.10300
1420.00000	185.87701
1422.00000	153.82248
1424.00000	119.24790
1426.00000	144.64417
1428.00000	168.18922
1430.00000	224.25465
1432.00000	234.04575
1434.00000	200.36812
1436.00000	170.85193
1438.00000	152.27301
1440.00000	151.51958
1442.00000	146.39188
1444.00000	119.08177
1446.00000	110.37327
1448.00000	200.52103
1450.00000	236.67569
1452.00000	182.26254
1454.00000	152.11150
1456.00000	212.62619
1458.00000	238.19853
1460.00000	218.46593
1462.00000	184.06412
1464.00000	132.93521
1466.00000	109.51241
1468.00000	134.86052
1470.00000	161.73770
1472.00000	141.18277
1474.00000	124.87701
1476.00000	210.55887
1478.00000	216.37207
1480.00000	138.40233
1482.00000	239.34329
1484.00000	222.18707
1486.00000	169.91798
1488.00000	172.30432
1490.00000	167.78864
1492.00000	199.58134
1494.00000	210.05467
1496.00000	184.03711
1498.00000	161.18384
1500.00000	158.75980
1502.00000	139.94910
1504.00000	143.07903
1506.00000	167.34413
1508.00000	176.86073
1510.00000	242.56192
1512.00000	220.44609
1514.00000	156.26784
1516.00000	195.51041
1518.00000	252.03590
1520.00000	233.72624
1522.00000	164.62769
1524.00000	154.93680
1526.00000	228.00616
1528.00000	157.98691
1530.00000	153.13928
1532.00000	203.49066
1534.00000	134.85994
1536.00000	181.14774
1538.00000	188.62019
1540.00000	121.82272
1542.00000	78.91484
1544.00000	80.04469
1546.00000	113.26660
1548.00000	209.65028
1550.00000	240.74225
1552.00000	121.96163
1554.00000	221.27641
1556.00000	244.41513
1558.00000	165.17133
1560.00000	164.47768
1562.00000	117.66330
1564.00000	158.24324
1566.00000	205.41081
1568.00000	157.96092
1570.00000	109.09562
1572.00000	145.77194
1574.00000	170.37227
1576.00000	140.94350
1578.00000	128.42252
1580.00000	171.83691
1582.00000	243.14514
1584.00000	256.37180
1586.00000	245.63101
1588.00000	339.23962
1590.00000	331.94412
1592.00000	305.92947
1594.00000	311.00568
1596.00000	288.77844
1598.00000	377.71164
1600.00000	400.69376
1602.00000	325.48898
1604.00000	280.79129
1606.00000	299.13641
1608.00000	342.11151
1610.00000	382.67560
1612.00000	346.59775
1614.00000	197.00519
1616.00000	141.30371
1618.00000	68.90666
1620.00000	379.47366
1622.00000	966.13062
1624.00000	408.98795
1626.00000	488.93173
1628.00000	761.03900
1630.00000	376.99313
1632.00000	385.69464
1634.00000	435.53156
1636.00000	447.51205
1638.00000	429.56595
1640.00000	342.36536
1642.00000	393.67816
1644.00000	366.38797
1646.00000	248.71625
1648.00000	220.65347
1650.00000	293.88162
1652.00000	342.23553
1654.00000	236.99576
1656.00000	100.75774
1658.00000	153.40230
1660.00000	195.45590
1662.00000	278.27982
1664.00000	306.76492
1666.00000	219.61368
1668.00000	301.97791
1670.00000	225.30652
1672.00000	126.80116
1674.00000	182.98294
1676.00000	179.75201
1678.00000	214.05904
1680.00000	184.80989
1682.00000	160.47801
1684.00000	245.43069
1686.00000	144.94446
1688.00000	237.24738
1690.00000	327.80157
1692.00000	168.96907
1694.00000	181.43933
1696.00000	200.47711
1698.00000	181.39645
1700.00000	190.00642
1702.00000	226.55118
1704.00000	226.27672
1706.00000	151.81973
1708.00000	132.61818
1710.00000	226.08835
1712.00000	226.90672
1714.00000	295.77704
1716.00000	349.94983
1718.00000	301.49557
1720.00000	294.88242
1722.00000	328.55368
1724.00000	268.11642
1726.00000	181.78836
1728.00000	223.84282
1730.00000	248.28067
1732.00000	203.20039
1734.00000	240.22299
1736.00000	334.28601
1738.00000	226.91548
1740.00000	284.70935
1742.00000	339.47238
1744.00000	274.12323
1746.00000	284.27115
1748.00000	271.06570
1750.00000	264.08469
1752.00000	223.29926
1754.00000	141.79187
1756.00000	176.75458
1758.00000	170.90720
1760.00000	158.65819
1762.00000	191.44365
1764.00000	181.31190
1766.00000	172.77100
1768.00000	155.36627
1770.00000	112.51761
1772.00000	81.38197
1774.00000	118.96969
1776.00000	131.49232
1778.00000	99.53654
1780.00000	61.47255
1782.00000	36.05304
1784.00000	90.24448
1786.00000	198.08151
1788.00000	228.17813
1790.00000	167.87480
1792.00000	285.26367
1794.00000	190.16144
1796.00000	97.57310
1798.00000	272.69626
1800.00000	177.11145
1802.00000	179.64992
1804.00000	192.51250
1806.00000	152.69968
1808.00000	313.01334
1810.00000	371.32709
1812.00000	263.31006
1814.00000	179.33936
1816.00000	228.73039
1818.00000	222.58275
1820.00000	222.62592
1822.00000	247.17526
1824.00000	261.43961
1826.00000	273.61340
1828.00000	274.36932
1830.00000	200.42558
1832.00000	149.03979
1834.00000	230.48109
1836.00000	211.94844
1838.00000	174.13002
1840.00000	240.71533
1842.00000	329.98959
1844.00000	243.32256
1846.00000	179.38094
1848.00000	139.85933
1850.00000	162.18796
1852.00000	320.16681
1854.00000	254.92773
1856.00000	236.56544
1858.00000	276.48523
1860.00000	191.19101
1862.00000	230.01083
1864.00000	228.17294
1866.00000	242.55597
1868.00000	274.39001
1870.00000	151.67856
1872.00000	257.48737
1874.00000	185.43459
1876.00000	63.94005
1878.00000	338.41849
1880.00000	275.62738
1882.00000	319.54279
1884.00000	376.64676
1886.00000	239.34521
1888.00000	383.95520
1890.00000	305.34009
1892.00000	174.38913
1894.00000	229.35895
1896.00000	269.21219
1898.00000	274.75253
1900.00000	338.09940
1902.00000	420.78445
1904.00000	415.25873
1906.00000	338.87830
1908.00000	223.96011
1910.00000	243.69780
1912.00000	314.58929
1914.00000	145.77557
1916.00000	122.65986
1918.00000	179.99362
1920.00000	185.17232
1922.00000	212.57680
1924.00000	307.09586
1926.00000	272.19748
1928.00000	295.61191
1930.00000	388.56519
1932.00000	127.79761
1934.00000	161.94089
1936.00000	169.17371
1938.00000	45.44727
1940.00000	216.58160
1942.00000	176.40233
1944.00000	218.55461
1946.00000	283.72012
1948.00000	159.50620
1950.00000	243.69077
1952.00000	294.51852
1954.00000	250.29436
1956.00000	221.50719
1958.00000	220.41194
1960.00000	183.96408
1962.00000	142.71069
1964.00000	195.21103
1966.00000	329.03333
1968.00000	329.42493
1970.00000	284.29913
1972.00000	248.59972
1974.00000	219.99046
1976.00000	212.76788
1978.00000	141.68881
1980.00000	174.47293
1982.00000	204.39606
1984.00000	60.31777
1986.00000	277.08084
1988.00000	256.34964
1990.00000	122.76219
1992.00000	251.34454
1994.00000	83.40476
1996.00000	22.07717
1998.00000	76.56446
2000.00000	88.56363
2002.00000	99.88343
2004.00000	76.18328
2006.00000	88.18652
2008.00000	113.81860
2010.00000	69.47503
2012.00000	76.51217
2014.00000	100.26139
2016.00000	113.88590
2018.00000	125.01472
2020.00000	106.57877
2022.00000	122.32272
2024.00000	135.53787
2026.00000	113.01708
2028.00000	118.09331
2030.00000	146.74687
2032.00000	156.65216
2034.00000	138.70624
2036.00000	121.41512
2038.00000	109.62425
2040.00000	95.33055
2042.00000	107.99944
2044.00000	153.57820
2046.00000	154.24522
2048.00000	95.14408
2050.00000	51.41357
2052.00000	84.41784
2054.00000	143.55176
2056.00000	106.48026
2058.00000	108.73331
2060.00000	120.44960
2062.00000	28.73601
2064.00000	93.85686
2066.00000	137.94998
2068.00000	101.89331
2070.00000	104.01266
2072.00000	155.17592
2074.00000	145.12135
2076.00000	89.40900
2078.00000	84.88136
2080.00000	148.06670
2082.00000	131.15643
2084.00000	93.43770
2086.00000	91.71130
2088.00000	109.09935
2090.00000	164.15189
2092.00000	156.19374
2094.00000	99.18260
2096.00000	93.05585
2098.00000	149.79257
2100.00000	143.72658
2102.00000	122.34885
2104.00000	123.60580
2106.00000	91.80409
2108.00000	109.62679
2110.00000	187.18282
2112.00000	194.37747
2114.00000	97.26308
2116.00000	143.64949
2118.00000	156.71919
2120.00000	113.24805
2122.00000	110.93200
2124.00000	113.86749
2126.00000	96.53246
2128.00000	138.98289
2130.00000	206.50592
2132.00000	164.90495
2134.00000	118.94047
2136.00000	149.27605
2138.00000	141.78444
2140.00000	42.60688
2142.00000	105.72263
2144.00000	184.38251
2146.00000	228.82359
2148.00000	222.92072
2150.00000	85.91568
2152.00000	58.91313
2154.00000	137.79669
2156.00000	176.89165
2158.00000	153.36316
2160.00000	225.27010
2162.00000	189.85818
2164.00000	81.86268
2166.00000	101.25449
2168.00000	154.23354
2170.00000	150.22090
2172.00000	103.05379
2174.00000	82.40199
2176.00000	105.08867
2178.00000	69.30357
2180.00000	63.20361
2182.00000	112.92662
2184.00000	110.98192
2186.00000	73.61637
2188.00000	153.82237
2190.00000	284.46246
2192.00000	260.38483
2194.00000	100.85909
2196.00000	156.23419
2198.00000	218.28557
2200.00000	123.96428
2202.00000	171.19586
2204.00000	283.58569
2206.00000	280.18356
2208.00000	178.11948
2210.00000	141.70378
2212.00000	173.17123
2214.00000	183.56741
2216.00000	173.06419
2218.00000	183.35658
2220.00000	176.00931
2222.00000	109.60871
2224.00000	77.95580
2226.00000	128.36685
2228.00000	164.12665
2230.00000	151.97882
2232.00000	206.13947
2234.00000	302.13477
2236.00000	287.57294
2238.00000	186.31993
2240.00000	208.18481
2242.00000	239.08847
2244.00000	155.06535
2246.00000	164.65601
2248.00000	141.78969
2250.00000	102.97479
2252.00000	122.69272
2254.00000	166.62297
2256.00000	159.52470
2258.00000	143.95160
2260.00000	200.68216
2262.00000	294.78641
2264.00000	244.88660
2266.00000	153.49475
2268.00000	145.17592
2270.00000	167.20776
2272.00000	79.51665
2274.00000	80.45274
2276.00000	168.11266
2278.00000	230.92838
2280.00000	211.46387
2282.00000	106.23213
2284.00000	124.53934
2286.00000	223.30316
2288.00000	203.99142
2290.00000	145.30605
2292.00000	139.91190
2294.00000	139.67854
2296.00000	98.74416
2298.00000	89.73458
2300.00000	112.27900
2302.00000	56.83287
2304.00000	52.43265
2306.00000	241.90077
2308.00000	162.91040
2310.00000	131.56419
2312.00000	256.26096
2314.00000	256.49216
2316.00000	104.59196
2318.00000	227.76241
2320.00000	395.62177
2322.00000	380.79837
2324.00000	499.33365
2326.00000	566.52240
2328.00000	463.60880
2330.00000	342.11713
2332.00000	356.81226
2334.00000	280.68628
2336.00000	233.87335
2338.00000	258.38214
2340.00000	261.72592
2342.00000	262.07101
2344.00000	352.30911
2346.00000	360.15366
2348.00000	222.18413
2350.00000	175.51414
2352.00000	210.68616
2354.00000	192.75186
2356.00000	142.95081
2358.00000	170.02211
2360.00000	172.22520
2362.00000	176.72687
2364.00000	157.12932
2366.00000	100.33947
2368.00000	121.16718
2370.00000	184.47136
2372.00000	153.91284
2374.00000	64.96481
2376.00000	95.31620
2378.00000	105.53935
2380.00000	145.91992
2382.00000	187.19215
2384.00000	153.41577
2386.00000	210.33257
2388.00000	253.29869
2390.00000	180.94716
2392.00000	80.20963
2394.00000	117.83553
2396.00000	123.15311
2398.00000	127.68419
2400.00000	164.88660
2402.00000	130.43053
2404.00000	80.32310
2406.00000	106.13229
2408.00000	143.31944
2410.00000	95.25246
2412.00000	80.04286
2414.00000	118.53262
2416.00000	139.83194
2418.00000	112.03155
2420.00000	102.04204
2422.00000	111.64220
2424.00000	119.75713
2426.00000	131.49460
2428.00000	153.16226
2430.00000	129.39937
2432.00000	146.09818
2434.00000	171.74715
2436.00000	123.23561
2438.00000	114.99488
2440.00000	198.29211
2442.00000	247.08313
2444.00000	169.31360
2446.00000	92.88737
2448.00000	168.62399
2450.00000	196.09637
2452.00000	111.87494
2454.00000	125.25950
2456.00000	208.76796
2458.00000	163.27718
2460.00000	153.74922
2462.00000	287.31329
2464.00000	116.72910
2466.00000	48.46761
2468.00000	129.12497
2470.00000	158.18488
2472.00000	169.88518
2474.00000	224.44423
2476.00000	228.73140
2478.00000	186.49713
2480.00000	181.88875
2482.00000	113.18934
2484.00000	191.03186
2486.00000	267.08658
2488.00000	136.01485
2490.00000	124.98481
2492.00000	271.70300
2494.00000	318.01306
2496.00000	205.98819
2498.00000	214.51529
2500.00000	296.75241
2502.00000	219.26978
2504.00000	91.62684
2506.00000	173.60085
2508.00000	203.93254
2510.00000	207.38922
2512.00000	280.01389
2514.00000	344.88651
2516.00000	213.54970
2518.00000	103.59551
2520.00000	136.13757
2522.00000	194.57729
2524.00000	145.91656
2526.00000	190.07661
2528.00000	208.88759
2530.00000	155.15108
2532.00000	144.99980
2534.00000	136.62016
2536.00000	90.63271
2538.00000	108.58279
2540.00000	206.11604
2542.00000	193.35120
2544.00000	206.94786
2546.00000	244.17671
2548.00000	279.82159
2550.00000	355.89127
2552.00000	360.83673
2554.00000	277.60947
2556.00000	224.22711
2558.00000	276.55246
2560.00000	280.93805
2562.00000	169.55792
2564.00000	172.20052
2566.00000	339.80988
2568.00000	310.99960
2570.00000	244.00085
2572.00000	227.65213
2574.00000	232.59827
2576.00000	225.77820
2578.00000	210.12346
2580.00000	267.46320
2582.00000	280.99692
2584.00000	169.25014
2586.00000	214.24731
2588.00000	238.43491
2590.00000	165.64783
2592.00000	117.87354
2594.00000	173.68060
2596.00000	179.49629
2598.00000	261.24826
2600.00000	335.33389
2602.00000	203.27429
2604.00000	311.83850
2606.00000	361.45822
2608.00000	221.55719
2610.00000	126.01485
2612.00000	150.42632
2614.00000	209.22006
2616.00000	265.54190
2618.00000	288.93945
2620.00000	229.97842
2622.00000	186.04019
2624.00000	56.80013
2626.00000	41.44913
2628.00000	448.78668
2630.00000	791.55920
2632.00000	577.11200
2634.00000	245.15222
2636.00000	388.48325
2638.00000	555.14880
2640.00000	300.89240
2642.00000	246.18481
2644.00000	544.57703
2646.00000	374.91711
2648.00000	400.46683
2650.00000	544.08539
2652.00000	516.05334
2654.00000	440.15616
2656.00000	576.29846
2658.00000	487.87015
2660.00000	298.32681
2662.00000	365.96426
2664.00000	390.59607
2666.00000	216.53236
2668.00000	184.54468
2670.00000	318.27835
2672.00000	186.94864
2674.00000	169.28703
2676.00000	362.48099
2678.00000	429.09909
2680.00000	197.85515
2682.00000	220.51315
2684.00000	374.95941
2686.00000	357.06552
2688.00000	180.21628
2690.00000	163.29832
2692.00000	199.21460
2694.00000	175.71077
2696.00000	173.48233
2698.00000	271.74329
2700.00000	187.72368
2702.00000	214.98500
2704.00000	444.65295
2706.00000	551.15051
2708.00000	377.18188
2710.00000	227.43077
2712.00000	230.12306
2714.00000	261.70459
2716.00000	239.81932
2718.00000	313.69992
2720.00000	251.16159
2722.00000	137.54562
2724.00000	343.15991
2726.00000	365.43896
2728.00000	279.93167
2730.00000	244.83905
2732.00000	243.28223
2734.00000	265.82648
2736.00000	180.00653
2738.00000	187.62059
2740.00000	314.67105
2742.00000	186.04343
2744.00000	173.82355
2746.00000	208.84026
2748.00000	188.44785
2750.00000	245.34877
2752.00000	301.75766
2754.00000	344.59103
2756.00000	350.64944
2758.00000	302.46243
2760.00000	262.52036
2762.00000	245.29724
2764.00000	224.14517
2766.00000	182.78558
2768.00000	158.37106
2770.00000	216.92633
2772.00000	252.05374
2774.00000	209.68028
2776.00000	197.22838
2778.00000	296.67160
2780.00000	331.30524
2782.00000	318.48004
2784.00000	369.22076
2786.00000	357.83435
2788.00000	263.82626
2790.00000	251.49702
2792.00000	300.03046
2794.00000	203.13136
2796.00000	285.04544
2798.00000	463.31241
2800.00000	465.23633
2802.00000	332.44342
2804.00000	495.32898
2806.00000	390.30753
2808.00000	142.46304
2810.00000	242.51953
2812.00000	381.09970
2814.00000	317.46759
2816.00000	306.91708
2818.00000	393.66299
2820.00000	272.23123
2822.00000	364.63663
2824.00000	504.01059
2826.00000	531.53436
2828.00000	549.85706
2830.00000	506.96021
2832.00000	401.95743
2834.00000	365.96411
2836.00000	355.06808
2838.00000	132.02019
2840.00000	226.08640
2842.00000	489.39160
2844.00000	474.09399
2846.00000	230.09377
2848.00000	355.58389
2850.00000	543.53827
2852.00000	467.01462
2854.00000	267.06369
2856.00000	197.02646
2858.00000	273.14493
2860.00000	267.94220
2862.00000	168.10706
2864.00000	294.80057
2866.00000	341.39343
2868.00000	214.49913
2870.00000	290.11722
2872.00000	695.86249
2874.00000	391.65463
2876.00000	303.69089
2878.00000	489.54105
2880.00000	207.55479
2882.00000	145.09152
2884.00000	311.03012
2886.00000	345.49237
2888.00000	235.34267
2890.00000	388.88181
2892.00000	532.69342
2894.00000	492.70648
2896.00000	435.34036
2898.00000	522.16986
2900.00000	409.69156
2902.00000	278.63611
2904.00000	368.17899
2906.00000	496.78815
2908.00000	231.00980
2910.00000	162.73442
2912.00000	358.17520
2914.00000	449.72821
2916.00000	388.59009
2918.00000	535.56604
2920.00000	618.09070
2922.00000	470.66769
2924.00000	354.15976
2926.00000	326.04303
2928.00000	365.15271
2930.00000	437.06625
2932.00000	464.81549
2934.00000	388.45184
2936.00000	512.11963
2938.00000	622.40497
2940.00000	550.40088
2942.00000	599.09515
2944.00000	687.73602
2946.00000	637.31598
2948.00000	427.25119
2950.00000	266.90433
2952.00000	373.68497
2954.00000	326.06863
2956.00000	302.78497
2958.00000	570.44434
2960.00000	568.88898
2962.00000	361.63574
2964.00000	303.28030
2966.00000	442.94037
2968.00000	445.37607
2970.00000	293.90424
2972.00000	240.16667
2974.00000	353.17307
2976.00000	391.58270
2978.00000	191.29510
2980.00000	337.54321
2982.00000	564.62714
2984.00000	501.43954
2986.00000	672.29614
2988.00000	540.84229
2990.00000	378.70291
2992.00000	418.32373
2994.00000	291.84341
2996.00000	263.16867
2998.00000	407.97693
3000.00000	501.57971
3002.00000	461.71896
3004.00000	654.64215
3006.00000	635.26868
3008.00000	394.09232
3010.00000	332.94086
3012.00000	518.90283
3014.00000	487.85852
3016.00000	230.72404
3018.00000	92.11278
3020.00000	253.66801
3022.00000	390.00113
3024.00000	421.43814
3026.00000	514.67371
3028.00000	619.30640
3030.00000	287.74887
3032.00000	97.14404
3034.00000	192.75557
3036.00000	269.28015
3038.00000	232.98517
3040.00000	274.66495
3042.00000	354.96979
3044.00000	403.62396
3046.00000	491.25058
3048.00000	626.23328
3050.00000	460.42175
3052.00000	453.94983
3054.00000	822.95087
3056.00000	369.37863
3058.00000	417.60522
3060.00000	662.34082
3062.00000	406.44296
3064.00000	478.88565
3066.00000	928.00214
3068.00000	1109.58960
3070.00000	770.07306
3072.00000	439.73822
3074.00000	602.17548
3076.00000	412.85977
3078.00000	227.45668
3080.00000	679.65472
3082.00000	689.65167
3084.00000	611.60834
3086.00000	902.55798
3088.00000	1228.02527
3090.00000	957.99091
3092.00000	826.74927
3094.00000	614.87915
3096.00000	373.56464
3098.00000	575.64288
3100.00000	674.38116
3102.00000	618.84894
3104.00000	928.17908
3106.00000	1400.55676
3108.00000	793.40717
3110.00000	425.43192
3112.00000	657.45282
3114.00000	586.90308
3116.00000	-13.09663
3118.00000	957.09161
3120.00000	1221.83228
3122.00000	476.54080
3124.00000	953.56207
3126.00000	1407.01416
3128.00000	1279.88306
3130.00000	965.43536
3132.00000	988.39099
3134.00000	1170.57825
3136.00000	649.79181
3138.00000	490.72818
3140.00000	1138.62036
3142.00000	1273.28833
3144.00000	1118.77710
3146.00000	1338.19983
3148.00000	1552.55493
3150.00000	968.40924
3152.00000	279.37976
3154.00000	750.83905
3156.00000	1074.33228
3158.00000	470.69330
3160.00000	1050.84265
3162.00000	1295.15222
3164.00000	1014.81250
3166.00000	962.55432
3168.00000	1117.87903
3170.00000	656.37842
3172.00000	343.14984
3174.00000	670.67340
3176.00000	982.14764
3178.00000	610.93427
3180.00000	933.74249
3182.00000	1566.69470
3184.00000	1425.15027
3186.00000	1036.35767
3188.00000	1214.12158
3190.00000	956.32806
3192.00000	388.85693
3194.00000	897.95624
3196.00000	1153.13025
3198.00000	1194.35547
3200.00000	1221.95728
