357.748322 14433.000000
360.018707 13965.000000
362.288208 13968.000000
364.556885 13473.000000
366.824707 13149.000000
369.091705 13195.000000
371.357819 13586.000000
373.623108 14144.000000
375.887543 14062.000000
378.151123 14198.000000
380.413879 14859.000000
382.675781 14930.000000
384.936829 15180.000000
387.197021 14990.000000
389.456390 15488.000000
391.714905 15593.000000
393.972565 15369.000000
396.229401 15455.000000
398.485382 15567.000000
400.740540 15376.000000
402.994812 15535.000000
405.248291 15928.000000
407.500885 15565.000000
409.752655 15678.000000
412.003601 16727.000000
414.253693 16694.000000
416.502930 16413.000000
418.751343 16033.000000
420.998901 15990.000000
423.245636 15344.000000
425.491516 15262.000000
427.736572 15283.000000
429.980774 14816.000000
432.224152 15233.000000
434.466675 15475.000000
436.708374 14529.000000
438.949249 14991.000000
441.189270 14787.000000
443.428467 14428.000000
445.666809 14611.000000
447.904327 14336.000000
450.140991 14938.000000
452.376831 14569.000000
454.611847 14921.000000
456.846039 14500.000000
459.079376 14216.000000
461.311890 14702.000000
463.543549 14975.000000
465.774384 14976.000000
468.004395 14997.000000
470.233582 15060.000000
472.461914 15711.000000
474.689423 15935.000000
476.916107 15922.000000
479.141968 15546.000000
481.366974 16027.000000
483.591187 16020.000000
485.814545 15387.000000
488.037048 15985.000000
490.258759 14642.000000
492.479645 15710.000000
494.699677 15255.000000
496.918884 15244.000000
499.137268 15703.000000
501.354828 15916.000000
503.571564 15953.000000
505.787476 15737.000000
508.002563 15582.000000
510.216827 16731.000000
512.430237 16393.000000
514.642822 16837.000000
516.854614 16399.000000
519.065552 15815.000000
521.275696 15914.000000
523.484985 14856.000000
525.693481 14068.000000
527.901123 14530.000000
530.107971 14165.000000
532.313965 14112.000000
534.519165 14541.000000
536.723572 14329.000000
538.927063 14445.000000
541.129822 14570.000000
543.331726 14068.000000
545.532776 14309.000000
547.733093 14116.000000
549.932495 14468.000000
552.131104 14148.000000
554.328918 14335.000000
556.525940 14225.000000
558.722107 14004.000000
560.917419 14274.000000
563.111938 14557.000000
565.305664 14734.000000
567.498596 14385.000000
569.690674 14212.000000
571.881897 14178.000000
574.072388 14492.000000
576.261963 14947.000000
578.450806 14294.000000
580.638794 14326.000000
582.825989 14649.000000
585.012390 14440.000000
587.197937 14864.000000
589.382629 14462.000000
591.566589 14488.000000
593.749695 14726.000000
595.932007 14906.000000
598.113525 14721.000000
600.294189 14936.000000
602.474060 14323.000000
604.653076 14655.000000
606.831360 14512.000000
609.008789 14414.000000
611.185364 14499.000000
613.361206 14292.000000
615.536194 15202.000000
617.710388 15076.000000
619.883789 14701.000000
622.056335 14865.000000
624.228149 14907.000000
626.399109 15250.000000
628.569214 14840.000000
630.738586 15035.000000
632.907104 14798.000000
635.074829 15192.000000
637.241760 14796.000000
639.407898 15665.000000
641.573181 15128.000000
643.737671 15014.000000
645.901367 15246.000000
648.064270 15760.000000
650.226379 15755.000000
652.387695 14812.000000
654.548157 15265.000000
656.707825 15626.000000
658.866699 15095.000000
661.024780 15253.000000
663.182068 15403.000000
665.338501 15711.000000
667.494202 15616.000000
669.649048 15750.000000
671.803101 15292.000000
673.956360 15687.000000
676.108826 15893.000000
678.260498 15781.000000
680.411377 15693.000000
682.561401 15341.000000
684.710693 15669.000000
686.859131 15522.000000
689.006836 14534.000000
691.153687 15356.000000
693.299744 15954.000000
695.445007 15682.000000
697.589478 15830.000000
699.733154 15962.000000
701.876038 15634.000000
704.018127 16251.000000
706.159424 15879.000000
708.299927 16642.000000
710.439636 16685.000000
712.578491 15988.000000
714.716614 16749.000000
716.853943 16533.000000
718.990479 16423.000000
721.126160 16253.000000
723.261108 16387.000000
725.395264 16348.000000
727.528625 16280.000000
729.661133 15957.000000
731.792908 16444.000000
733.923889 16743.000000
736.054077 16043.000000
738.183472 16512.000000
740.312073 16733.000000
742.439880 16821.000000
744.566895 16352.000000
746.693115 16503.000000
748.818542 16519.000000
750.943176 16538.000000
753.067078 16379.000000
755.190125 17219.000000
757.312439 16681.000000
759.433899 16225.000000
761.554626 16046.000000
763.674500 16855.000000
765.793640 16662.000000
767.911987 16735.000000
770.029541 16491.000000
772.146362 16994.000000
774.262329 16524.000000
776.377563 17145.000000
778.491943 17052.000000
780.605591 16395.000000
782.718445 16605.000000
784.830505 16479.000000
786.941772 17023.000000
789.052246 16567.000000
791.161987 16695.000000
793.270935 17003.000000
795.379089 16792.000000
797.486450 16246.000000
799.593018 17347.000000
801.698853 16593.000000
803.803833 17576.000000
805.908081 17262.000000
808.011536 17539.000000
810.114258 17545.000000
812.216125 16565.000000
814.317261 17608.000000
816.417603 17613.000000
818.517151 17696.000000
820.615967 17652.000000
822.713928 17819.000000
824.811157 17533.000000
826.907593 17899.000000
829.003296 17461.000000
831.098206 17928.000000
833.192322 17859.000000
835.285645 17844.000000
837.378235 17236.000000
839.470032 17166.000000
841.561035 17748.000000
843.651245 17740.000000
845.740723 17306.000000
847.829407 17160.000000
849.917297 17720.000000
852.004456 17582.000000
854.090820 17611.000000
856.176453 18368.000000
858.261230 18046.000000
860.345276 18217.000000
862.428589 18016.000000
864.511047 18414.000000
866.592773 17785.000000
868.673767 18439.000000
870.753967 18248.000000
872.833374 18334.000000
874.911987 18813.000000
876.989868 18336.000000
879.067017 18212.000000
881.143311 18173.000000
883.218933 18857.000000
885.293701 18933.000000
887.367737 18053.000000
889.440979 18681.000000
891.513489 18595.000000
893.585205 18880.000000
895.656189 18747.000000
897.726379 19355.000000
899.795776 18783.000000
901.864441 19098.000000
903.932312 19326.000000
905.999451 19113.000000
908.065796 19109.000000
910.131409 19268.000000
912.196228 19058.000000
914.260315 19869.000000
916.323608 19214.000000
918.386169 19488.000000
920.447937 19224.000000
922.508911 19539.000000
924.569153 19443.000000
926.628662 19233.000000
928.687378 19483.000000
930.745361 19250.000000
932.802551 19737.000000
934.858948 19572.000000
936.914612 20069.000000
938.969543 20234.000000
941.023682 19673.000000
943.077087 19490.000000
945.129700 20192.000000
947.181580 20458.000000
949.232727 20231.000000
951.283081 20008.000000
953.332642 20083.000000
955.381470 20038.000000
957.429565 19916.000000
959.476868 19219.000000
961.523438 19917.000000
963.569214 20159.000000
965.614258 20159.000000
967.658569 20068.000000
969.702087 20290.000000
971.744873 20197.000000
973.786865 20040.000000
975.828186 19907.000000
977.868652 20194.000000
979.908447 20772.000000
981.947449 20207.000000
983.985657 20628.000000
986.023132 20650.000000
988.059875 20447.000000
990.095886 21187.000000
992.131104 20825.000000
994.165588 21347.000000
996.199280 21546.000000
998.232300 21112.000000
1000.264465 20492.000000
1002.295959 20799.000000
1004.326660 21094.000000
1006.356628 20690.000000
1008.385864 20851.000000
1010.414307 20933.000000
1012.442017 21264.000000
1014.468994 21560.000000
1016.495239 21911.000000
1018.520691 21842.000000
1020.545410 21163.000000
1022.569336 21956.000000
1024.592529 21805.000000
1026.614990 21830.000000
1028.636719 21843.000000
1030.657715 21679.000000
1032.677979 22204.000000
1034.697388 22085.000000
1036.716187 21358.000000
1038.734131 22097.000000
1040.751465 22343.000000
1042.767944 21490.000000
1044.783691 22026.000000
1046.798706 22342.000000
1048.812866 21958.000000
1050.826416 21652.000000
1052.839233 22325.000000
1054.851196 21539.000000
1056.862549 22212.000000
1058.873047 22598.000000
1060.882812 22766.000000
1062.891846 22623.000000
1064.900146 23064.000000
1066.907715 22105.000000
1068.914551 22722.000000
1070.920654 22610.000000
1072.926025 23177.000000
1074.930664 24164.000000
1076.934448 24603.000000
1078.937622 25409.000000
1080.939941 26200.000000
1082.941650 27082.000000
1084.942505 25892.000000
1086.942627 26363.000000
1088.942139 25448.000000
1090.940796 24300.000000
1092.938721 23678.000000
1094.935913 23705.000000
1096.932373 24009.000000
1098.928101 23696.000000
1100.923096 22614.000000
1102.917358 23368.000000
1104.910889 23653.000000
1106.903687 23820.000000
1108.895752 23685.000000
1110.887085 23887.000000
1112.877563 23120.000000
1114.867432 23945.000000
1116.856567 23760.000000
1118.844971 23894.000000
1120.832520 24299.000000
1122.819458 24187.000000
1124.805664 24173.000000
1126.791016 24241.000000
1128.775757 24411.000000
1130.759766 24547.000000
1132.742920 24769.000000
1134.725464 24836.000000
1136.707275 24893.000000
1138.688232 24397.000000
1140.668579 24597.000000
1142.648193 24760.000000
1144.626953 24576.000000
1146.605103 24994.000000
1148.582520 25149.000000
1150.559204 24377.000000
1152.535034 24728.000000
1154.510254 25311.000000
1156.484741 25207.000000
1158.458496 25577.000000
1160.431519 25556.000000
1162.403687 25521.000000
1164.375244 24662.000000
1166.346069 25535.000000
1168.316162 24809.000000
1170.285522 24665.000000
1172.254150 25525.000000
1174.222168 26032.000000
1176.189331 25294.000000
1178.155762 25486.000000
1180.121460 25718.000000
1182.086548 25782.000000
1184.050781 25284.000000
1186.014282 25737.000000
1187.977173 25425.000000
1189.939331 26084.000000
1191.900635 26122.000000
1193.861328 25989.000000
1195.821289 25998.000000
1197.780518 25927.000000
1199.739014 26477.000000
1201.696777 26940.000000
1203.653809 26899.000000
1205.610107 26136.000000
1207.565674 26540.000000
1209.520630 26395.000000
1211.474731 27282.000000
1213.428223 27045.000000
1215.380859 26308.000000
1217.332886 27338.000000
1219.284180 27279.000000
1221.234741 26838.000000
1223.184570 27022.000000
1225.133667 27188.000000
1227.082031 27885.000000
1229.029663 27150.000000
1230.976685 28165.000000
1232.922852 27934.000000
1234.868408 27566.000000
1236.813232 27603.000000
1238.757324 27004.000000
1240.700684 27819.000000
1242.643311 27964.000000
1244.585327 27844.000000
1246.526489 28308.000000
1248.467041 28365.000000
1250.406738 27860.000000
1252.345825 28490.000000
1254.284180 28126.000000
1256.221802 27474.000000
1258.158813 28134.000000
1260.094971 27683.000000
1262.030518 28260.000000
1263.965210 28043.000000
1265.899292 27994.000000
1267.832642 29453.000000
1269.765259 28116.000000
1271.697266 28215.000000
1273.628418 28200.000000
1275.558960 28441.000000
1277.488770 28766.000000
1279.417847 29187.000000
1281.346191 28996.000000
1283.273926 28766.000000
1285.200806 29102.000000
1287.127075 29028.000000
1289.052612 29442.000000
1290.977417 30016.000000
1292.901489 30120.000000
1294.824951 29198.000000
1296.747559 30000.000000
1298.669556 29712.000000
1300.590820 30080.000000
1302.511353 29454.000000
1304.431274 30348.000000
1306.350342 30406.000000
1308.268799 30161.000000
1310.186523 30367.000000
1312.103516 30119.000000
1314.019897 29981.000000
1315.935547 30424.000000
1317.850342 30672.000000
1319.764648 31048.000000
1321.678101 30468.000000
1323.590820 30771.000000
1325.502930 31279.000000
1327.414307 31124.000000
1329.324951 31062.000000
1331.234985 30428.000000
1333.144165 31517.000000
1335.052734 30727.000000
1336.960571 31316.000000
1338.867798 31335.000000
1340.774170 30949.000000
1342.679932 31873.000000
1344.584961 31396.000000
1346.489380 31409.000000
1348.392944 31540.000000
1350.295898 31487.000000
1352.198120 32298.000000
1354.099731 31164.000000
1356.000488 32239.000000
1357.900635 32120.000000
1359.800049 32377.000000
1361.698853 32204.000000
1363.596802 31591.000000
1365.494141 32163.000000
1367.390869 31675.000000
1369.286743 32532.000000
1371.182007 32215.000000
1373.076538 31815.000000
1374.970337 32348.000000
1376.863525 32462.000000
1378.755981 32598.000000
1380.647705 32575.000000
1382.538696 32287.000000
1384.429077 32454.000000
1386.318726 32430.000000
1388.207642 32744.000000
1390.095947 33370.000000
1391.983521 32218.000000
1393.870361 32486.000000
1395.756592 32459.000000
1397.641968 32566.000000
1399.526855 33024.000000
1401.410889 32609.000000
1403.294312 32980.000000
1405.177002 33824.000000
1407.058960 34174.000000
1408.940308 33469.000000
1410.820923 33395.000000
1412.700806 34078.000000
1414.580078 33465.000000
1416.458618 34580.000000
1418.336426 33423.000000
1420.213623 34317.000000
1422.090088 34059.000000
1423.965820 34443.000000
1425.840942 34518.000000
1427.715332 34798.000000
1429.589111 33903.000000
1431.462036 34024.000000
1433.334351 34373.000000
1435.206055 35083.000000
1437.076904 33874.000000
1438.947266 34934.000000
1440.816772 35217.000000
1442.685669 34446.000000
1444.553833 35753.000000
1446.421387 35596.000000
1448.288086 34658.000000
1450.154297 35533.000000
1452.019653 35810.000000
1453.884399 34644.000000
1455.748535 35767.000000
1457.611816 35573.000000
1459.474609 35260.000000
1461.336548 36336.000000
1463.197876 36210.000000
1465.058472 36880.000000
1466.918457 36645.000000
1468.777710 36216.000000
1470.636230 37020.000000
1472.494141 37139.000000
1474.351318 36769.000000
1476.207886 36626.000000
1478.063721 36512.000000
1479.918823 36782.000000
1481.773315 35591.000000
1483.627075 36918.000000
1485.480225 36153.000000
1487.332642 36972.000000
1489.184326 36851.000000
1491.035400 37149.000000
1492.885864 37151.000000
1494.735474 36476.000000
1496.584473 36876.000000
1498.432861 35877.000000
1500.280518 37512.000000
1502.127441 37620.000000
1503.973755 37637.000000
1505.819336 36938.000000
1507.664307 37009.000000
1509.508545 37570.000000
1511.352051 37420.000000
1513.194946 37653.000000
1515.037231 37279.000000
1516.878662 37688.000000
1518.719604 38277.000000
1520.559692 37986.000000
1522.399292 37478.000000
1524.238037 38568.000000
1526.076172 38348.000000
1527.913696 37986.000000
1529.750488 38122.000000
1531.586548 38623.000000
1533.421997 37986.000000
1535.256714 38161.000000
1537.090820 37922.000000
1538.924316 38458.000000
1540.756958 38116.000000
1542.589111 39006.000000
1544.420410 39075.000000
1546.251099 38593.000000
1548.081177 39010.000000
1549.910522 39590.000000
1551.739258 39260.000000
1553.567261 40055.000000
1555.394531 39793.000000
1557.221191 39975.000000
1559.047241 39839.000000
1560.872559 40089.000000
1562.697266 40213.000000
1564.521240 40994.000000
1566.344482 40621.000000
1568.167114 39868.000000
1569.989136 40227.000000
1571.810425 40262.000000
1573.630981 40917.000000
1575.450928 40054.000000
1577.270264 41369.000000
1579.088867 40944.000000
1580.906738 40700.000000
1582.724121 41177.000000
1584.540649 40466.000000
1586.356567 40483.000000
1588.171875 40060.000000
1589.986450 40765.000000
1591.800415 40987.000000
1593.613647 41090.000000
1595.426270 40529.000000
1597.238159 41466.000000
1599.049438 41328.000000
1600.859985 41135.000000
1602.669922 41132.000000
1604.479126 41234.000000
1606.287720 40844.000000
1608.095703 41809.000000
1609.902954 41626.000000
1611.709595 41924.000000
1613.515503 42299.000000
1615.320679 41652.000000
1617.125366 42563.000000
1618.929199 40929.000000
1620.732544 41473.000000
1622.535156 41738.000000
1624.337036 41799.000000
1626.138306 42332.000000
1627.938965 41913.000000
1629.738892 42025.000000
1631.538208 42720.000000
1633.336792 43368.000000
1635.134766 42437.000000
1636.932129 42270.000000
1638.728760 43040.000000
1640.524658 42558.000000
1642.319946 42665.000000
1644.114624 43103.000000
1645.908691 42982.000000
1647.702026 43457.000000
1649.494629 43198.000000
1651.286621 42734.000000
1653.078003 43887.000000
1654.868652 43531.000000
1656.658691 43599.000000
1658.448120 43520.000000
1660.236816 44084.000000
1662.024902 44710.000000
1663.812256 43186.000000
1665.598999 43964.000000
1667.385132 44131.000000
1669.170532 44455.000000
1670.955322 45162.000000
1672.739380 44785.000000
1674.522827 45260.000000
1676.305664 44712.000000
1678.087769 44755.000000
1679.869263 44783.000000
1681.650024 45160.000000
1683.430298 45473.000000
1685.209717 44616.000000
1686.988647 44104.000000
1688.766846 45431.000000
1690.544312 45791.000000
1692.321289 45241.000000
1694.097534 45781.000000
1695.873047 45155.000000
1697.647949 45592.000000
1699.422241 45512.000000
1701.195923 45851.000000
1702.968872 45368.000000
1704.741211 45616.000000
1706.512817 45346.000000
1708.283813 45303.000000
1710.054199 46614.000000
1711.823975 46537.000000
1713.593018 45711.000000
1715.361450 45537.000000
1717.129150 46712.000000
1718.896240 46646.000000
1720.662720 45389.000000
1722.428467 45988.000000
1724.193604 45927.000000
1725.958130 47156.000000
1727.722046 46595.000000
1729.485229 46677.000000
1731.247803 46322.000000
1733.009644 46519.000000
1734.770874 46817.000000
1736.531494 46909.000000
1738.291504 46292.000000
1740.050781 46835.000000
1741.809448 46614.000000
1743.567383 46947.000000
1745.324829 46819.000000
1747.081543 47228.000000
1748.837524 47156.000000
1750.593018 46371.000000
1752.347778 46575.000000
1754.101929 47685.000000
1755.855347 47348.000000
1757.608276 47303.000000
1759.360474 47159.000000
1761.111938 47054.000000
1762.862915 47206.000000
1764.613159 47902.000000
1766.362793 47319.000000
1768.111694 48355.000000
1769.859985 47799.000000
1771.607666 47908.000000
1773.354736 48097.000000
1775.101074 48520.000000
1776.846924 48174.000000
1778.591919 48323.000000
1780.336426 47562.000000
1782.080200 48142.000000
1783.823486 48260.000000
1785.565918 48174.000000
1787.307861 47787.000000
1789.049072 48532.000000
1790.789673 48575.000000
1792.529663 48091.000000
1794.269043 49156.000000
1796.007690 48701.000000
1797.745728 48682.000000
1799.483154 49001.000000
1801.219971 48842.000000
1802.956055 49437.000000
1804.691528 49067.000000
1806.426392 49074.000000
1808.160522 49927.000000
1809.894165 49111.000000
1811.627075 49978.000000
1813.359375 49222.000000
1815.091064 49540.000000
1816.822021 49552.000000
1818.552368 49056.000000
1820.282104 49683.000000
1822.011230 50251.000000
1823.739746 50008.000000
1825.467529 49304.000000
1827.194702 50014.000000
1828.921265 50093.000000
1830.647217 50017.000000
1832.372437 48661.000000
1834.097168 50979.000000
1835.821167 50814.000000
1837.544556 50172.000000
1839.267212 49953.000000
1840.989380 50222.000000
1842.710815 50651.000000
1844.431641 50260.000000
1846.151855 50343.000000
1847.871460 50643.000000
1849.590332 50939.000000
1851.308716 50220.000000
1853.026367 50817.000000
1854.743408 51577.000000
1856.459839 50810.000000
1858.175537 50550.000000
1859.890747 50962.000000
1861.605225 51388.000000
1863.319092 51643.000000
1865.032349 51344.000000
1866.744873 51548.000000
1868.456909 50396.000000
1870.168213 51125.000000
1871.879028 51384.000000
1873.589111 51693.000000
1875.298584 51086.000000
1877.007324 51085.000000
1878.715576 51468.000000
1880.423096 51575.000000
1882.130005 51657.000000
1883.836304 52475.000000
1885.541992 52165.000000
1887.247070 52699.000000
1888.951538 52325.000000
1890.655273 52254.000000
1892.358521 52769.000000
1894.061035 52496.000000
1895.762939 52361.000000
1897.464233 52712.000000
1899.164917 52217.000000
1900.864868 52138.000000
1902.564331 53413.000000
1904.263062 53023.000000
1905.961182 52353.000000
1907.658691 52320.000000
1909.355591 52752.000000
1911.051880 52122.000000
1912.747559 52663.000000
1914.442627 53726.000000
1916.136963 53098.000000
1917.830811 52395.000000
1919.523926 53229.000000
1921.216431 52956.000000
1922.908325 52374.000000
1924.599609 52251.000000
1926.290283 53300.000000
1927.980225 53819.000000
1929.669678 53395.000000
1931.358521 53418.000000
1933.046631 54035.000000
1934.734131 54479.000000
1936.421021 53564.000000
1938.107422 54105.000000
1939.793091 54362.000000
1941.478149 53267.000000
1943.162476 54252.000000
1944.846313 54040.000000
1946.529541 53996.000000
1948.212036 54230.000000
1949.894043 54152.000000
1951.575317 54097.000000
1953.256104 54418.000000
1954.936157 54626.000000
1956.615601 54642.000000
1958.294434 54278.000000
1959.972656 54653.000000
1961.650269 54308.000000
1963.327271 54185.000000
1965.003662 55186.000000
1966.679321 55123.000000
1968.354492 54318.000000
1970.029053 54681.000000
1971.702881 54792.000000
1973.376221 55397.000000
1975.048828 55054.000000
1976.720947 55697.000000
1978.392334 55306.000000
1980.063110 55500.000000
1981.733398 54735.000000
1983.402954 54935.000000
1985.071899 55332.000000
1986.740234 55547.000000
1988.407959 55431.000000
1990.075073 55954.000000
1991.741577 55629.000000
1993.407471 55728.000000
1995.072754 56407.000000
1996.737427 56342.000000
1998.401489 56181.000000
2000.064819 55428.000000
2001.727661 56270.000000
2003.389893 56614.000000
2005.051514 55484.000000
2006.712402 56008.000000
2008.372803 56563.000000
2010.032593 56233.000000
2011.691650 56349.000000
2013.350220 56624.000000
2015.008179 55418.000000
2016.665405 57035.000000
2018.322144 56813.000000
2019.978149 56787.000000
2021.633667 56642.000000
2023.288574 56984.000000
2024.942749 57016.000000
2026.596436 56497.000000
2028.249390 57041.000000
2029.901855 57056.000000
2031.553589 56013.000000
2033.204834 56658.000000
2034.855469 56262.000000
2036.505371 57531.000000
2038.154785 56192.000000
2039.803467 57207.000000
2041.451660 57546.000000
2043.099243 57317.000000
2044.746094 56812.000000
2046.392456 57205.000000
2048.038086 57514.000000
2049.683350 57665.000000
2051.327881 57044.000000
2052.971680 57276.000000
2054.614990 57610.000000
2056.257568 57076.000000
2057.899658 57279.000000
2059.541260 56805.000000
2061.182129 57995.000000
2062.822266 58216.000000
2064.461914 56797.000000
2066.101074 57840.000000
2067.739502 57192.000000
2069.377197 58084.000000
2071.014404 57839.000000
2072.651123 57409.000000
2074.287109 56416.000000
2075.922607 57756.000000
2077.557373 57047.000000
2079.191650 57618.000000
2080.825195 58211.000000
2082.458252 58052.000000
2084.090576 58603.000000
2085.722412 57710.000000
2087.353516 57506.000000
2088.984131 58191.000000
2090.614014 58414.000000
2092.243408 58903.000000
2093.872314 58909.000000
2095.500488 57606.000000
2097.127930 59021.000000
2098.755127 58491.000000
2100.381348 58244.000000
2102.007080 58758.000000
2103.632324 59173.000000
2105.256836 58570.000000
2106.880859 58387.000000
2108.504150 57811.000000
2110.126953 58897.000000
2111.749268 59104.000000
2113.370850 59001.000000
2114.991699 58211.000000
2116.612061 59040.000000
2118.231934 59057.000000
2119.851074 59754.000000
2121.469727 59578.000000
2123.087646 59891.000000
2124.705078 59567.000000
2126.321777 59736.000000
2127.937988 60412.000000
2129.553711 60346.000000
2131.168701 60208.000000
2132.782959 59298.000000
2134.396729 59995.000000
2136.010010 59655.000000
2137.622559 59881.000000
2139.234619 59634.000000
2140.845947 59886.000000
2142.456787 60274.000000
2144.067139 60555.000000
2145.676758 60057.000000
2147.285645 59156.000000
2148.894043 60793.000000
2150.501953 60686.000000
2152.109375 59780.000000
2153.715820 60638.000000
2155.322021 59439.000000
2156.927490 60206.000000
2158.532227 59735.000000
2160.136475 60750.000000
2161.740234 60845.000000
2163.343262 60319.000000
2164.945801 60399.000000
2166.547852 60102.000000
2168.149170 59216.000000
2169.749756 61089.000000
2171.349854 60557.000000
2172.949463 60318.000000
2174.548340 60441.000000
2176.146729 61291.000000
2177.744629 60239.000000
2179.341797 60274.000000
2180.938232 60121.000000
2182.534180 61790.000000
2184.129639 59854.000000
2185.724609 60352.000000
2187.318604 61216.000000
2188.912354 59934.000000
2190.505371 60983.000000
2192.097900 60695.000000
2193.689697 60842.000000
2195.281006 61209.000000
2196.871582 60678.000000
2198.461670 59566.000000
2200.051270 60628.000000
2201.640137 60902.000000
2203.228516 60394.000000
2204.816162 61446.000000
2206.403320 61310.000000
2207.989990 60296.000000
2209.575928 61289.000000
2211.161377 60083.000000
2212.746094 60838.000000
2214.330322 61396.000000
2215.914062 60347.000000
2217.497070 60979.000000
2219.079590 61219.000000
2220.661377 59889.000000
2222.242676 60960.000000
2223.823242 61933.000000
2225.403564 61224.000000
2226.982910 62412.000000
2228.562012 60517.000000
2230.140381 61387.000000
2231.718018 61970.000000
2233.295410 61144.000000
2234.871826 61609.000000
2236.447998 61631.000000
2238.023438 61274.000000
2239.598145 61404.000000
2241.172607 61657.000000
2242.746094 61311.000000
2244.319336 62163.000000
2245.891846 61292.000000
2247.463867 62105.000000
2249.035156 62070.000000
2250.605957 61704.000000
2252.176025 61847.000000
2253.745605 61148.000000
2255.314697 61744.000000
2256.883301 60895.000000
2258.451172 62299.000000
2260.018311 61822.000000
2261.585205 61859.000000
2263.151123 62680.000000
2264.716797 61592.000000
2266.281738 61861.000000
2267.846191 63469.000000
2269.409912 62137.000000
2270.973145 62243.000000
2272.535889 63046.000000
2274.097900 62489.000000
2275.659424 62542.000000
2277.220215 62433.000000
2278.780518 61093.000000
2280.340332 61869.000000
2281.899658 61293.000000
2283.458252 62709.000000
2285.016113 62681.000000
2286.573730 62249.000000
2288.130371 61731.000000
2289.686768 62799.000000
2291.242432 62095.000000
2292.797607 60951.000000
2294.352295 62171.000000
2295.906250 62144.000000
2297.459473 63367.000000
2299.012451 62457.000000
2300.564697 62532.000000
2302.116211 63191.000000
2303.667480 62700.000000
2305.218018 62778.000000
2306.767822 62974.000000
2308.317383 62680.000000
2309.866211 62518.000000
2311.414307 63419.000000
2312.961914 62384.000000
2314.509033 63371.000000
2316.055664 62669.000000
2317.601562 62461.000000
2319.146729 63287.000000
2320.691650 62350.000000
2322.235840 62927.000000
2323.779541 63842.000000
2325.322510 62255.000000
2326.864990 63025.000000
2328.406982 62809.000000
2329.948242 62551.000000
2331.489014 62192.000000
2333.029297 62254.000000
2334.568848 62326.000000
2336.107910 61889.000000
2337.646484 63949.000000
2339.184326 63287.000000
2340.721680 63408.000000
2342.258545 63988.000000
2343.794678 62945.000000
2345.330322 62049.000000
2346.865479 62073.000000
2348.399902 62508.000000
2349.933838 63304.000000
2351.467285 63112.000000
2353.000000 63171.000000
2354.532227 63344.000000
2356.063965 63855.000000
2357.594971 62960.000000
2359.125488 63791.000000
2360.655273 63201.000000
2362.184814 62643.000000
2363.713623 63218.000000
2365.241699 62720.000000
2366.769531 61860.000000
2368.296631 63552.000000
2369.822998 63291.000000
2371.349121 63663.000000
2372.874512 63260.000000
2374.399414 63142.000000
2375.923584 62727.000000
2377.447266 63566.000000
2378.970459 63552.000000
2380.492920 63611.000000
2382.014893 63866.000000
2383.536377 63192.000000
2385.057373 62778.000000
2386.577637 63360.000000
2388.097412 63057.000000
2389.616455 63463.000000
2391.135010 63557.000000
2392.653076 63274.000000
2394.170654 62799.000000
2395.687500 64033.000000
2397.203857 64179.000000
2398.719727 63944.000000
2400.234863 63776.000000
2401.749512 63262.000000
2403.263672 64780.000000
2404.777344 64359.000000
2406.290283 64206.000000
2407.802734 63260.000000
2409.314453 63644.000000
2410.825684 65007.000000
2412.336426 63691.000000
2413.846680 62703.000000
2415.356201 63651.000000
2416.865234 63705.000000
2418.373779 63997.000000
2419.881592 63235.000000
2421.389160 63876.000000
2422.895752 63026.000000
2424.402100 63776.000000
2425.907715 64149.000000
2427.412842 64087.000000
2428.917480 63711.000000
2430.421387 63758.000000
2431.924805 64341.000000
2433.427734 64191.000000
2434.929932 63574.000000
2436.431885 64428.000000
2437.933105 63633.000000
2439.433594 63560.000000
2440.933838 62910.000000
2442.433350 64060.000000
2443.932129 64130.000000
2445.430664 63281.000000
2446.928467 63582.000000
2448.425781 64109.000000
2449.922363 64449.000000
2451.418701 64645.000000
2452.914307 63765.000000
2454.409424 64508.000000
2455.903809 64262.000000
2457.397705 64386.000000
2458.891113 63943.000000
2460.384033 64590.000000
2461.876221 63932.000000
2463.367920 63406.000000
2464.859131 63301.000000
2466.349854 64484.000000
2467.839844 64779.000000
2469.329346 63578.000000
2470.818359 64073.000000
2472.306641 64824.000000
2473.794434 64368.000000
2475.281738 64658.000000
2476.768555 64239.000000
2478.254639 64238.000000
2479.740234 64683.000000
2481.225342 63645.000000
2482.709961 64461.000000
2484.193848 64224.000000
2485.677246 63642.000000
2487.160156 64905.000000
2488.642334 64154.000000
2490.124023 63632.000000
2491.605225 64265.000000
2493.085938 63958.000000
2494.566162 63723.000000
2496.045654 64963.000000
2497.524658 65309.000000
2499.002930 64524.000000
2500.480957 65104.000000
2501.958252 65102.000000
2503.435059 64823.000000
2504.911133 64247.000000
2506.386963 64177.000000
2507.862061 64682.000000
2509.336670 64977.000000
2510.810547 64929.000000
2512.284180 65278.000000
2513.757080 63648.000000
2515.229492 63550.000000
2516.701172 64640.000000
2518.172607 63841.000000
2519.643311 64150.000000
2521.113525 63372.000000
2522.583008 63891.000000
2524.052246 64073.000000
2525.520752 64599.000000
2526.988770 64030.000000
2528.456055 65585.000000
2529.923096 63384.000000
2531.389404 63385.000000
2532.855225 64107.000000
2534.320312 63986.000000
2535.785156 64179.000000
2537.249268 64089.000000
2538.712891 64061.000000
2540.176025 64535.000000
2541.638428 65610.000000
2543.100342 63936.000000
2544.561768 63681.000000
2546.022705 63767.000000
2547.482910 64285.000000
2548.942871 63238.000000
2550.402100 64731.000000
2551.860840 64398.000000
2553.318848 63853.000000
2554.776367 64814.000000
2556.233643 64071.000000
2557.689941 64181.000000
2559.145996 64568.000000
2560.601562 65156.000000
2562.056396 64519.000000
2563.510742 64006.000000
2564.964355 64829.000000
2566.417725 62881.000000
2567.870361 64722.000000
2569.322510 64083.000000
2570.774170 64028.000000
2572.225342 63747.000000
2573.675781 65234.000000
2575.125732 63872.000000
2576.575195 63148.000000
2578.024170 63305.000000
2579.472656 64487.000000
2580.920410 64154.000000
2582.367676 64583.000000
2583.814453 64960.000000
2585.260498 64789.000000
2586.706299 64020.000000
2588.151367 64571.000000
2589.595947 63337.000000
2591.040039 64168.000000
2592.483398 62489.000000
2593.926514 63134.000000
2595.368896 63003.000000
2596.810791 64341.000000
2598.252197 64482.000000
2599.692871 64144.000000
2601.133057 63369.000000
2602.572754 64170.000000
2604.011963 62818.000000
2605.450684 63996.000000
2606.888672 64756.000000
2608.326416 64269.000000
2609.763428 63619.000000
2611.199951 64241.000000
2612.635742 64319.000000
2614.071289 64323.000000
2615.506104 65419.000000
2616.940430 64082.000000
2618.374268 65052.000000
2619.807373 64069.000000
2621.240234 64408.000000
2622.672363 64762.000000
2624.104004 64899.000000
2625.535156 65150.000000
2626.965820 64139.000000
2628.395752 64337.000000
2629.825195 64041.000000
2631.254150 64357.000000
2632.682617 64901.000000
2634.110596 63283.000000
2635.538086 64159.000000
2636.964844 64357.000000
2638.391113 64714.000000
2639.816895 64516.000000
2641.242188 64692.000000
2642.666748 63523.000000
2644.090820 63934.000000
2645.514648 64128.000000
2646.937744 63687.000000
2648.360107 64094.000000
2649.782227 64080.000000
2651.203613 65388.000000
2652.624756 65322.000000
2654.045166 65075.000000
2655.465088 62786.000000
2656.884277 63524.000000
2658.303223 64310.000000
2659.721436 64507.000000
2661.139160 64628.000000
2662.556396 62425.000000
2663.973145 63866.000000
2665.389160 63729.000000
2666.804932 65146.000000
2668.219971 63556.000000
2669.634521 64110.000000
2671.048584 63187.000000
2672.462158 63334.000000
2673.875000 62638.000000
2675.287598 64988.000000
2676.699463 65297.000000
2678.110840 64171.000000
2679.521729 63881.000000
2680.932129 63568.000000
2682.341797 64066.000000
2683.750977 63585.000000
2685.159912 63724.000000
2686.568115 64695.000000
2687.975586 64364.000000
2689.382812 63404.000000
2690.789551 62926.000000
2692.195557 64785.000000
2693.601074 64105.000000
2695.006104 63921.000000
2696.410645 63637.000000
2697.814697 65140.000000
2699.218018 63621.000000
2700.621094 63314.000000
2702.023438 64051.000000
2703.425293 63952.000000
2704.826660 63401.000000
2706.227539 63593.000000
2707.627686 62582.000000
2709.027588 62996.000000
2710.426758 63958.000000
2711.825439 63018.000000
2713.223633 63393.000000
2714.621338 63725.000000
2716.018311 62936.000000
2717.415039 63581.000000
2718.811035 62933.000000
2720.206543 63304.000000
2721.601562 64189.000000
2722.996094 62431.000000
2724.390137 63658.000000
2725.783691 62890.000000
2727.176514 63807.000000
2728.568848 63901.000000
2729.960693 64541.000000
2731.352051 63879.000000
2732.742920 63791.000000
2734.133301 63293.000000
2735.523193 63334.000000
2736.912354 62472.000000
2738.301025 62864.000000
2739.689209 64169.000000
2741.076904 63100.000000
2742.464111 63748.000000
2743.850830 62842.000000
2745.237061 63441.000000
2746.622559 63349.000000
2748.007568 63296.000000
2749.392090 64411.000000
2750.776123 64605.000000
2752.159668 63803.000000
2753.542725 63431.000000
2754.925293 63398.000000
2756.307129 63203.000000
2757.688721 63266.000000
2759.069580 63543.000000
2760.449951 63954.000000
2761.829834 62232.000000
2763.209229 63898.000000
2764.587891 63914.000000
2765.966309 63110.000000
2767.343994 63387.000000
2768.721436 62980.000000
2770.098145 63707.000000
2771.474365 61649.000000
2772.850098 62602.000000
2774.225098 63415.000000
2775.599854 63000.000000
2776.974121 63799.000000
2778.347656 63497.000000
2779.720703 62666.000000
2781.093262 62908.000000
2782.465576 63505.000000
2783.836914 63269.000000
2785.208008 61637.000000
2786.578613 63605.000000
2787.948730 62891.000000
2789.318115 63033.000000
2790.687012 63031.000000
2792.055420 62786.000000
2793.423584 64909.000000
2794.791016 63654.000000
2796.157715 61700.000000
2797.524170 61759.000000
2798.890137 62561.000000
2800.255371 63915.000000
2801.620361 62737.000000
2802.984619 63140.000000
2804.348389 63541.000000
2805.711670 62981.000000
2807.074463 63307.000000
2808.436768 62286.000000
2809.798584 61829.000000
2811.159668 63226.000000
2812.520508 62910.000000
2813.880615 63210.000000
2815.240479 62074.000000
2816.599609 62901.000000
2817.958252 62097.000000
2819.316406 62889.000000
2820.674072 62971.000000
2822.031250 62497.000000
2823.387695 62509.000000
2824.743896 62817.000000
2826.099365 62813.000000
2827.454590 63063.000000
2828.809082 62806.000000
2830.163086 63173.000000
2831.516602 62384.000000
2832.869629 61369.000000
2834.222168 60744.000000
2835.574219 62057.000000
2836.925781 62663.000000
2838.276611 62376.000000
2839.627197 63119.000000
2840.977051 62918.000000
2842.326660 63280.000000
2843.675537 62005.000000
2845.023926 61258.000000
2846.371826 61437.000000
2847.719238 60783.000000
2849.066162 61335.000000
2850.412598 62370.000000
2851.758301 61605.000000
2853.103760 61357.000000
2854.448486 62264.000000
2855.792969 61679.000000
2857.136719 63380.000000
2858.479980 61826.000000
2859.822754 61500.000000
2861.165039 61058.000000
2862.506836 62963.000000
2863.848145 62244.000000
2865.188965 61634.000000
2866.529297 60130.000000
2867.869141 62229.000000
2869.208252 61540.000000
2870.547119 63165.000000
2871.885254 61146.000000
2873.222900 60240.000000
2874.560303 61616.000000
2875.896973 62449.000000
2877.233154 63207.000000
2878.568848 61217.000000
2879.904053 62461.000000
2881.238770 61478.000000
2882.572998 60452.000000
2883.906494 62327.000000
2885.239746 61134.000000
2886.572266 60977.000000
2887.904541 61336.000000
2889.236084 62564.000000
2890.567383 61811.000000
2891.897949 61823.000000
2893.228027 60341.000000
2894.557617 61638.000000
2895.886963 60657.000000
2897.215576 61350.000000
2898.543457 61183.000000
2899.871094 61375.000000
2901.198242 62276.000000
2902.524902 61457.000000
2903.851074 61697.000000
2905.176514 61897.000000
2906.501709 61544.000000
2907.826172 60924.000000
2909.150391 60985.000000
2910.473877 61151.000000
2911.796875 61445.000000
2913.119629 61786.000000
2914.441650 60642.000000
2915.763184 61613.000000
2917.084229 60096.000000
2918.404785 60847.000000
2919.724854 61367.000000
2921.044434 59431.000000
2922.363525 61896.000000
2923.681885 62087.000000
2925.000000 61663.000000
2926.317627 61519.000000
2927.634521 61316.000000
2928.951172 59911.000000
2930.267334 61484.000000
2931.582764 59986.000000
2932.897705 61184.000000
2934.212402 60864.000000
2935.526367 60738.000000
2936.839844 61554.000000
2938.153076 60795.000000
2939.465576 61758.000000
2940.777588 61343.000000
2942.089111 61301.000000
2943.400146 59901.000000
2944.710693 61213.000000
2946.020752 60488.000000
2947.330322 60777.000000
2948.639160 61044.000000
2949.947754 60621.000000
2951.255859 60712.000000
2952.563477 60435.000000
2953.870361 58894.000000
2955.177002 59741.000000
2956.483154 61585.000000
2957.788574 61209.000000
2959.093750 59304.000000
2960.398193 61138.000000
2961.702393 60376.000000
2963.005859 60782.000000
2964.308838 60572.000000
2965.611572 60532.000000
2966.913574 58538.000000
2968.215088 60290.000000
2969.516113 61487.000000
2970.816895 60596.000000
2972.116943 59688.000000
2973.416504 60405.000000
2974.715576 60689.000000
2976.014160 60360.000000
2977.312256 58936.000000
2978.609863 60454.000000
2979.906982 60265.000000
2981.203613 59495.000000
2982.499756 60746.000000
2983.795410 57481.000000
2985.090332 58819.000000
2986.385010 59475.000000
2987.679199 60565.000000
2988.972900 58878.000000
2990.265869 58746.000000
2991.558594 57809.000000
2992.850830 60166.000000
2994.142578 59603.000000
2995.433594 60142.000000
2996.724365 58852.000000
2998.014404 58219.000000
2999.304199 60282.000000
3000.593506 59217.000000
3001.882080 58202.000000
3003.170410 59614.000000
3004.458008 60595.000000
3005.745361 59446.000000
3007.031982 60400.000000
3008.318359 58132.000000
3009.604004 58786.000000
3010.889160 57371.000000
3012.174072 60314.000000
3013.458252 58333.000000
3014.742188 58640.000000
3016.025391 58781.000000
3017.308105 59898.000000
3018.590576 59039.000000
3019.872314 58836.000000
3021.153564 58944.000000
3022.434570 60188.000000
3023.714844 59220.000000
3024.994629 57566.000000
3026.273926 58867.000000
3027.552979 57508.000000
3028.831299 58848.000000
3030.109131 56726.000000
3031.386475 58778.000000
3032.663574 57739.000000
3033.939941 58865.000000
3035.215820 58134.000000
3036.491211 60378.000000
3037.766357 57794.000000
3039.040771 58000.000000
3040.314697 58125.000000
3041.588135 58624.000000
3042.861328 58618.000000
3044.133789 59674.000000
3045.405762 58666.000000
3046.677246 58861.000000
3047.948242 57714.000000
3049.218994 59306.000000
3050.489014 58442.000000
3051.758545 58745.000000
3053.027588 57046.000000
3054.296387 58456.000000
3055.564453 58601.000000
3056.832031 57208.000000
3058.099121 56545.000000
3059.365967 58039.000000
3060.632080 57761.000000
3061.897705 57871.000000
3063.162842 58839.000000
3064.427734 59462.000000
3065.691895 58702.000000
3066.955566 58322.000000
3068.218994 58107.000000
3069.481689 58514.000000
3070.743896 57588.000000
3072.005859 58287.000000
3073.267090 56899.000000
3074.527832 58313.000000
3075.788330 58471.000000
3077.048096 56671.000000
3078.307617 57413.000000
3079.566406 55689.000000
3080.824951 58115.000000
3082.082764 58262.000000
3083.340088 57408.000000
3084.597168 55506.000000
3085.853760 57168.000000
3087.109619 58427.000000
3088.365234 58650.000000
3089.620117 57325.000000
3090.874756 56843.000000
3092.128662 58101.000000
3093.382324 55915.000000
3094.635498 57123.000000
3095.887939 57529.000000
3097.140137 57508.000000
3098.391846 57678.000000
3099.643066 57328.000000
3100.893799 57963.000000
3102.143799 57007.000000
3103.393555 58209.000000
3104.642822 57270.000000
3105.891602 57111.000000
3107.139893 56273.000000
3108.387695 56746.000000
3109.635010 56675.000000
3110.881836 56634.000000
3112.128174 56295.000000
3113.374023 57592.000000
3114.619385 56955.000000
3115.864258 55243.000000
3117.108643 54785.000000
3118.352783 57543.000000
3119.596191 55855.000000
3120.839111 56785.000000
3122.081543 56612.000000
3123.323730 56085.000000
3124.565186 56683.000000
3125.806396 57727.000000
3127.046875 57172.000000
3128.287109 57258.000000
3129.526611 57584.000000
3130.765869 55183.000000
3132.004395 56017.000000
3133.242676 56586.000000
3134.480469 55771.000000
3135.717529 55692.000000
3136.954346 54842.000000
3138.190674 55385.000000
3139.426514 55772.000000
3140.661865 56248.000000
3141.896729 55412.000000
3143.131104 54101.000000
3144.364990 56330.000000
3145.598389 56364.000000
3146.831299 54841.000000
3148.063721 57070.000000
3149.295654 56784.000000
3150.527344 55841.000000
3151.758301 56240.000000
3152.988770 55966.000000
3154.218994 55303.000000
3155.448486 56036.000000
3156.677734 55970.000000
3157.906250 52761.000000
3159.134521 54742.000000
3160.362061 53122.000000
3161.589355 55486.000000
3162.816162 55406.000000
3164.042480 55494.000000
3165.268311 54620.000000
3166.493652 54369.000000
3167.718506 55093.000000
3168.942871 54753.000000
3170.166748 56085.000000
3171.390137 56454.000000
3172.613037 54834.000000
3173.835449 53206.000000
3175.057617 55881.000000
3176.279053 53926.000000
3177.500244 54088.000000
3178.720703 54898.000000
3179.940918 56056.000000
3181.160400 55518.000000
3182.379639 54748.000000
3183.598389 53153.000000
3184.816650 54190.000000
3186.034180 54839.000000
3187.251465 54619.000000
3188.468262 53718.000000
3189.684570 54736.000000
3190.900635 54506.000000
3192.115967 53170.000000
3193.330811 52474.000000
3194.545166 54210.000000
3195.759277 53243.000000
3196.972656 54486.000000
3198.185791 55189.000000
3199.398438 52949.000000
3200.610352 54724.000000
3201.822021 52849.000000
3203.033203 54081.000000
3204.243896 52041.000000
3205.454102 52647.000000
3206.663818 53784.000000
3207.873047 53851.000000
3209.081787 54040.000000
3210.290039 52827.000000
3211.498047 54149.000000
3212.705322 51961.000000
3213.912354 54460.000000
3215.118652 54961.000000
3216.324707 53811.000000
3217.530029 54394.000000
3218.735107 53712.000000
3219.939697 51785.000000
3221.143799 53106.000000
3222.347412 52999.000000
3223.550537 52933.000000
3224.753174 53811.000000
3225.955566 52170.000000
3227.157227 53293.000000
3228.358643 52795.000000
3229.559326 53683.000000
3230.759766 52049.000000
3231.959473 53848.000000
3233.158936 54398.000000
3234.357910 53538.000000
3235.556396 53115.000000
3236.754395 52915.000000
3237.951904 53225.000000
3239.148926 51913.000000
3240.345703 51502.000000
3241.541748 53186.000000
3242.737305 54439.000000
3243.932617 53559.000000
3245.127441 51957.000000
3246.321533 52141.000000
3247.515381 52520.000000
3248.708740 53501.000000
3249.901611 53302.000000
3251.093994 52776.000000
3252.286133 52424.000000
3253.477539 50910.000000
3254.668457 53205.000000
3255.859131 53215.000000
3257.049072 52815.000000
3258.238770 50947.000000
3259.427979 50888.000000
3260.616699 51919.000000
3261.804932 51980.000000
3262.992676 53256.000000
3264.179932 52601.000000
3265.366699 51559.000000
3266.552979 51546.000000
3267.739014 52578.000000
3268.924316 52467.000000
3270.109375 51415.000000
3271.293945 50730.000000
3272.478027 51752.000000
3273.661621 51496.000000
3274.844727 52175.000000
3276.027344 51222.000000
3277.209473 50720.000000
3278.391113 51920.000000
3279.572510 51197.000000
3280.753174 50445.000000
3281.933594 52391.000000
3283.113525 51733.000000
3284.292969 49913.000000
3285.471924 52113.000000
3286.650391 52621.000000
3287.828369 50673.000000
3289.006104 51179.000000
3290.183105 51849.000000
3291.359863 49932.000000
3292.535889 49312.000000
3293.711670 50013.000000
3294.886963 50252.000000
3296.061768 50503.000000
3297.236084 50297.000000
3298.409912 51317.000000
3299.583252 50408.000000
3300.756348 50205.000000
3301.928711 49737.000000
3303.100830 51404.000000
3304.272461 50647.000000
3305.443604 51716.000000
3306.614258 49702.000000
3307.784424 48867.000000
3308.954102 51217.000000
3310.123535 51628.000000
3311.292236 49945.000000
3312.460693 51075.000000
3313.628662 49855.000000
3314.795898 51047.000000
3315.962891 50959.000000
3317.129395 49782.000000
3318.295654 49117.000000
3319.461182 50625.000000
3320.626221 50606.000000
3321.791016 50572.000000
3322.955322 49925.000000
3324.119141 50343.000000
3325.282471 50296.000000
3326.445312 49093.000000
3327.607666 48632.000000
3328.769531 49325.000000
3329.931152 49367.000000
3331.092041 50103.000000
3332.252686 50583.000000
3333.412842 48640.000000
3334.572510 50745.000000
3335.731689 50006.000000
3336.890381 50071.000000
3338.048584 50284.000000
3339.206543 48692.000000
3340.364014 49247.000000
3341.520752 50862.000000
3342.677246 49919.000000
3343.833252 48693.000000
3344.988770 48119.000000
3346.144043 49600.000000
3347.298584 48393.000000
3348.452881 50030.000000
3349.606445 47698.000000
3350.759766 47130.000000
3351.912598 49686.000000
3353.064941 48870.000000
3354.216797 49744.000000
3355.368408 47377.000000
3356.519287 49864.000000
3357.669922 48735.000000
3358.820068 47009.000000
3359.969727 49425.000000
3361.118896 48292.000000
3362.267578 47499.000000
3363.415771 48110.000000
3364.563721 49879.000000
3365.711182 47560.000000
3366.857910 49164.000000
3368.004395 48710.000000
3369.150391 49516.000000
3370.295898 49383.000000
3371.441162 48480.000000
3372.585693 49662.000000
3373.729980 48353.000000
3374.873779 48844.000000
3376.017090 49233.000000
3377.159912 49239.000000
3378.302246 49190.000000
3379.444092 49224.000000
3380.585693 49035.000000
3381.726807 47784.000000
3382.867188 48758.000000
3384.007324 47097.000000
3385.147217 47228.000000
3386.286377 48322.000000
3387.425049 49062.000000
3388.563477 48766.000000
3389.701416 47709.000000
3390.838623 46269.000000
3391.975586 48039.000000
3393.112305 48380.000000
3394.248291 48321.000000
3395.384033 48561.000000
3396.519043 48733.000000
3397.653809 46293.000000
3398.788086 49243.000000
3399.921875 45284.000000
3401.055176 47163.000000
3402.188232 48166.000000
3403.320557 45453.000000
3404.452637 46600.000000
3405.584229 46721.000000
3406.715332 47610.000000
3407.845947 48076.000000
3408.976318 46642.000000
3410.105957 46738.000000
3411.235352 48074.000000
3412.364258 48429.000000
3413.492676 46412.000000
3414.620605 47167.000000
3415.748291 46123.000000
3416.875244 46428.000000
3418.001953 46219.000000
3419.128174 47968.000000
3420.253906 47477.000000
3421.379150 48780.000000
3422.503906 45357.000000
3423.628418 48486.000000
3424.752197 46177.000000
3425.875732 46699.000000
3426.998779 47132.000000
3428.121582 47263.000000
3429.243652 47474.000000
3430.365234 47931.000000
3431.486572 46146.000000
3432.607422 45481.000000
3433.727783 47855.000000
3434.847656 45644.000000
3435.967285 47014.000000
3437.086182 46968.000000
3438.204834 47981.000000
3439.322998 46518.000000
3440.440674 46186.000000
3441.557861 46938.000000
3442.674805 45020.000000
3443.791016 45292.000000
3444.906982 45981.000000
3446.022461 47173.000000
3447.137451 48269.000000
3448.252197 46614.000000
3449.366211 46212.000000
3450.479980 45801.000000
3451.593262 46432.000000
3452.706055 46834.000000
3453.818359 44698.000000
3454.930176 46692.000000
3456.041748 44943.000000
3457.152832 46312.000000
3458.263428 47523.000000
3459.373535 47168.000000
3460.483154 45050.000000
3461.592529 45784.000000
3462.701172 45646.000000
3463.809570 45197.000000
3464.917480 45476.000000
3466.024902 46319.000000
3467.132080 46330.000000
3468.238525 46253.000000
3469.344727 45242.000000
3470.450439 45550.000000
3471.555664 45193.000000
3472.660645 46435.000000
3473.764893 45788.000000
3474.868896 46238.000000
3475.972412 44950.000000
3477.075439 44088.000000
3478.177979 45873.000000
3479.280273 45236.000000
3480.381836 44578.000000
3481.483154 45159.000000
3482.583984 45968.000000
3483.684326 45584.000000
3484.784424 44800.000000
3485.884033 44106.000000
3486.982910 44758.000000
3488.081543 43332.000000
3489.179932 44379.000000
3490.277588 43260.000000
3491.375000 42346.000000
3492.471680 45579.000000
3493.568115 45470.000000
3494.664307 43350.000000
3495.759766 44851.000000
3496.854980 45552.000000
3497.949463 45265.000000
3499.043701 45369.000000
3500.137695 44062.000000
3501.230957 44255.000000
3502.323975 43859.000000
3503.416260 44208.000000
3504.508301 42964.000000
3505.599854 43216.000000
3506.691162 45348.000000
3507.781738 45422.000000
3508.872070 44394.000000
3509.961914 44717.000000
3511.051270 43384.000000
3512.140381 44603.000000
3513.228760 42131.000000
3514.316895 44495.000000
3515.404541 44874.000000
3516.491943 44986.000000
3517.578613 43426.000000
3518.665039 44056.000000
3519.750977 44255.000000
3520.836426 42751.000000
3521.921387 43741.000000
3523.005859 45232.000000
3524.090088 44330.000000
3525.173828 43619.000000
3526.257080 42469.000000
3527.339844 43683.000000
3528.422363 45287.000000
3529.504395 44072.000000
3530.585938 43393.000000
3531.666992 42933.000000
3532.747559 41485.000000
3533.827881 43102.000000
3534.907471 43374.000000
3535.987061 42902.000000
3537.065918 42598.000000
3538.144287 41400.000000
3539.222412 43051.000000
3540.300049 44275.000000
3541.377197 44445.000000
3542.453857 43655.000000
3543.530273 43182.000000
3544.605957 44772.000000
3545.681396 42918.000000
3546.756592 40651.000000
3547.831055 41674.000000
3548.905273 43193.000000
3549.978760 42965.000000
3551.052246 40645.000000
3552.125000 40794.000000
3553.197266 43099.000000
3554.269287 43363.000000
3555.340820 42780.000000
3556.411865 43054.000000
3557.482666 42358.000000
3558.552734 44003.000000
3559.622559 43406.000000
3560.691895 42731.000000
3561.760742 42412.000000
3562.829346 42585.000000
3563.897461 42869.000000
3564.965088 41781.000000
3566.032227 42589.000000
3567.098877 42723.000000
3568.165283 42383.000000
3569.231201 39309.000000
3570.296631 41500.000000
3571.361572 42277.000000
3572.426270 40472.000000
3573.490479 42674.000000
3574.554199 42539.000000
3575.617432 44080.000000
3576.680176 42266.000000
3577.742676 39287.000000
3578.804688 41462.000000
3579.866211 39152.000000
3580.927490 40197.000000
3581.988037 42135.000000
3583.048340 40553.000000
3584.108154 41738.000000
3585.167725 42822.000000
3586.226562 41176.000000
3587.285156 41778.000000
3588.343262 41171.000000
3589.401123 42400.000000
3590.458252 42878.000000
3591.515137 40426.000000
3592.571533 41357.000000
3593.627441 41334.000000
3594.683105 42895.000000
3595.738037 41639.000000
3596.792725 42428.000000
3597.847168 41076.000000
3598.900879 39292.000000
3599.954346 40302.000000
3601.007324 40071.000000
3602.059814 43049.000000
3603.111816 40179.000000
3604.163574 40872.000000
3605.214844 38769.000000
3606.265625 41109.000000
3607.315918 38453.000000
3608.365967 39903.000000
3609.415527 39185.000000
3610.464600 41011.000000
3611.513184 39093.000000
3612.561523 41367.000000
3613.609375 38648.000000
3614.656738 41000.000000
3615.703613 42014.000000
3616.750244 41287.000000
3617.796387 41735.000000
3618.842041 39273.000000
3619.887207 40416.000000
3620.932129 40635.000000
3621.976562 41532.000000
3623.020508 39749.000000
3624.063965 38965.000000
3625.107178 38884.000000
3626.149902 39470.000000
3627.192139 39462.000000
3628.233887 41070.000000
3629.275391 40332.000000
3630.316162 39128.000000
3631.356934 40491.000000
3632.396973 40483.000000
3633.436768 41147.000000
3634.475830 38302.000000
3635.514893 39173.000000
3636.553223 39328.000000
3637.591309 36588.000000
3638.628662 40014.000000
3639.666016 41018.000000
3640.702637 37333.000000
3641.739014 37022.000000
3642.774902 39909.000000
3643.810303 38950.000000
3644.845215 37551.000000
3645.879883 38529.000000
3646.914062 40838.000000
3647.947754 37899.000000
3648.981201 40519.000000
3650.013916 38429.000000
3651.046631 39747.000000
3652.078613 39994.000000
3653.110107 38326.000000
3654.141357 39079.000000
3655.172119 38042.000000
3656.202637 38387.000000
3657.232422 38276.000000
3658.261963 35626.000000
3659.291016 39607.000000
3660.319824 38925.000000
3661.347900 39456.000000
3662.375732 39470.000000
3663.403076 39072.000000
3664.430176 38227.000000
3665.456543 40279.000000
3666.482666 38311.000000
3667.508545 36476.000000
3668.533691 38083.000000
3669.558594 36045.000000
3670.583008 39924.000000
3671.606934 38925.000000
3672.630615 38203.000000
3673.653809 38693.000000
3674.676514 38492.000000
3675.698975 36116.000000
3676.720703 39155.000000
3677.742188 38835.000000
3678.763184 36244.000000
3679.783936 39015.000000
3680.804199 37155.000000
3681.823975 39223.000000
3682.843262 37958.000000
3683.862305 36077.000000
3684.880859 38823.000000
3685.898926 39195.000000
3686.916504 37170.000000
3687.933838 38883.000000
3688.950684 38656.000000
3689.967041 36988.000000
3690.983154 38415.000000
3691.998779 38577.000000
3693.013916 37069.000000
3694.028564 39325.000000
3695.042969 38218.000000
3696.056885 38160.000000
3697.070312 37980.000000
3698.083252 39111.000000
3699.095947 38773.000000
3700.108154 37491.000000
3701.120117 36461.000000
3702.131348 34135.000000
3703.142334 36696.000000
3704.152832 38364.000000
3705.163086 37835.000000
3706.172852 37186.000000
3707.182129 35462.000000
3708.190918 36297.000000
3709.199463 39292.000000
3710.207520 38035.000000
3711.215088 35072.000000
3712.222168 37828.000000
3713.229004 38829.000000
3714.235352 37703.000000
3715.241211 37426.000000
3716.246826 37041.000000
3717.251953 36387.000000
3718.256592 38144.000000
3719.260986 37283.000000
3720.264648 37200.000000
3721.268311 36668.000000
3722.271240 35026.000000
3723.273926 34505.000000
3724.276123 36991.000000
3725.277832 35481.000000
3726.279053 35460.000000
3727.280029 39257.000000
3728.280518 36390.000000
3729.280762 35600.000000
3730.280273 36330.000000
3731.279541 36892.000000
3732.278564 36165.000000
3733.276855 36279.000000
3734.274902 35898.000000
3735.272461 35773.000000
3736.269775 34372.000000
3737.266602 35609.000000
3738.262939 37054.000000
3739.258789 35481.000000
3740.254395 35217.000000
3741.249512 35224.000000
3742.244141 34084.000000
3743.238525 35440.000000
3744.232178 37604.000000
3745.225830 36360.000000
3746.218750 36541.000000
3747.211426 34696.000000
3748.203613 37149.000000
3749.195312 35243.000000
3750.186768 36620.000000
3751.177734 36844.000000
3752.168213 34360.000000
3753.158447 34086.000000
3754.148193 35517.000000
3755.137451 36303.000000
3756.126221 36527.000000
3757.114746 36444.000000
3758.102783 37481.000000
3759.090576 34372.000000
3760.077637 36580.000000
3761.064453 35354.000000
3762.051025 35226.000000
3763.036865 36546.000000
3764.022461 34394.000000
3765.007568 36068.000000
3765.992432 33984.000000
3766.976807 31300.000000
3767.960693 35624.000000
3768.944092 36899.000000
3769.927246 35154.000000
3770.909912 32206.000000
3771.892334 32985.000000
3772.874023 35773.000000
3773.855469 31681.000000
3774.836670 34007.000000
3775.817139 35064.000000
3776.797363 36072.000000
3777.777344 35627.000000
3778.756592 33827.000000
3779.735596 34725.000000
3780.714111 30545.000000
3781.692383 35988.000000
3782.670166 35905.000000
3783.647461 36778.000000
3784.624268 35298.000000
3785.600830 32761.000000
3786.576904 35830.000000
3787.552734 33577.000000
3788.527832 34562.000000
3789.502930 35265.000000
3790.477295 33625.000000
3791.451416 36322.000000
3792.425049 35244.000000
3793.398193 33227.000000
3794.371094 33454.000000
3795.343506 30792.000000
3796.315430 33962.000000
3797.286865 35117.000000
3798.258057 35209.000000
3799.229004 31306.000000
3800.199219 33914.000000
3801.169189 33763.000000
3802.138672 34805.000000
3803.107910 31135.000000
3804.076660 32108.000000
3805.044922 34991.000000
3806.012695 33928.000000
3806.980225 35118.000000
3807.947266 34275.000000
3808.914062 34235.000000
3809.880371 34471.000000
3810.846191 31062.000000
3811.811523 33083.000000
3812.776611 32044.000000
3813.741211 34969.000000
3814.705566 34044.000000
3815.669189 33950.000000
3816.632812 33357.000000
3817.595703 31039.000000
3818.558350 34815.000000
3819.520508 32829.000000
3820.482178 30307.000000
3821.443604 33373.000000
3822.404541 32490.000000
3823.364990 33648.000000
3824.325195 31315.000000
3825.284912 33956.000000
3826.244385 30906.000000
3827.203125 29032.000000
3828.161621 33314.000000
3829.119873 32086.000000
3830.077637 30607.000000
3831.034912 33890.000000
3831.991699 32619.000000
3832.948242 33800.000000
3833.904297 33415.000000
3834.859863 33580.000000
3835.815186 32699.000000
3836.770020 33852.000000
3837.724609 32046.000000
3838.678467 32808.000000
3839.632080 32986.000000
3840.585449 32225.000000
3841.538330 33701.000000
3842.490723 30687.000000
3843.442627 33853.000000
3844.394287 31833.000000
3845.345459 33706.000000
3846.296143 32215.000000
3847.246582 31744.000000
3848.196533 31560.000000
3849.146240 32732.000000
3850.095459 32717.000000
3851.044189 31868.000000
3851.992432 30516.000000
3852.940430 31469.000000
3853.887939 33692.000000
3854.835205 33484.000000
3855.781982 33056.000000
3856.728271 29221.000000
3857.674316 30570.000000
3858.619629 32864.000000
3859.564941 29728.000000
3860.509521 32831.000000
3861.453857 29083.000000
3862.397949 28545.000000
3863.341309 32104.000000
3864.284424 30917.000000
3865.227295 30989.000000
3866.169434 31141.000000
3867.111328 31679.000000
3868.052979 31191.000000
3868.993896 32607.000000
3869.934570 31506.000000
3870.875000 31028.000000
3871.814941 29548.000000
3872.754395 29569.000000
3873.693359 26554.000000
3874.632080 32154.000000
3875.570312 29405.000000
3876.508301 30877.000000
3877.445801 32670.000000
3878.382812 30198.000000
3879.319336 27901.000000
3880.255615 30807.000000
3881.191650 27104.000000
3882.126953 31805.000000
3883.062012 28445.000000
3883.996826 33039.000000
3884.930908 30295.000000
3885.864746 30973.000000
3886.798340 29675.000000
3887.731201 28894.000000
3888.664062 32575.000000
3889.596191 29299.000000
3890.528076 29394.000000
3891.459473 31044.000000
3892.390625 31229.000000
3893.321289 32410.000000
3894.251465 31265.000000
3895.181152 30108.000000
3896.110596 31429.000000
3897.039795 26924.000000
3897.968262 32429.000000
3898.896729 32130.000000
3899.824463 26787.000000
3900.751953 31680.000000
3901.678955 30550.000000
3902.605469 31494.000000
3903.531738 28968.000000
3904.457764 28178.000000
3905.383057 29712.000000
3906.308105 31065.000000
3907.232666 31422.000000
3908.156982 30679.000000
3909.080811 27166.000000
3910.004395 27993.000000
3910.927246 30236.000000
3911.849854 26526.000000
3912.772217 28240.000000
3913.694092 29606.000000
3914.615479 29862.000000
3915.536621 29510.000000
3916.457275 30269.000000
3917.377441 28048.000000
3918.297363 29288.000000
3919.216797 27545.000000
3920.135742 30445.000000
3921.054443 29931.000000
3921.972656 29480.000000
3922.890625 31919.000000
3923.808105 29944.000000
3924.725098 29680.000000
3925.641846 27793.000000
3926.558105 29419.000000
3927.473877 27991.000000
3928.389404 30125.000000
3929.304443 30403.000000
3930.219238 28220.000000
3931.133301 24206.000000
3932.047363 25161.000000
3932.960693 29196.000000
3933.873779 28786.000000
3934.786621 30862.000000
3935.698975 29613.000000
3936.610840 30824.000000
3937.522217 29407.000000
3938.433350 24768.000000
3939.343994 28050.000000
3940.254395 28041.000000
3941.164307 28726.000000
3942.073730 25249.000000
3942.982910 30020.000000
3943.891602 29129.000000
3944.800049 27855.000000
3945.708008 24490.000000
3946.615479 28718.000000
3947.522705 29301.000000
3948.429443 29183.000000
3949.335693 27447.000000
3950.241699 29311.000000
3951.147217 27666.000000
3952.052490 26097.000000
3952.957275 24848.000000
3953.861572 23953.000000
3954.765625 29925.000000
3955.669189 28683.000000
3956.572266 23699.000000
3957.475098 27995.000000
3958.377441 28652.000000
3959.279541 26771.000000
3960.181152 25503.000000
3961.082275 29953.000000
3961.983154 28913.000000
3962.883545 27874.000000
3963.783691 28279.000000
3964.683350 26142.000000
3965.582520 29177.000000
3966.481201 28994.000000
3967.379883 25575.000000
3968.277832 29078.000000
3969.175537 27825.000000
3970.072754 28631.000000
3970.969727 27925.000000
3971.866211 29104.000000
3972.762207 23609.000000
3973.657959 28055.000000
3974.553223 23378.000000
3975.448242 25525.000000
3976.342773 23785.000000
3977.236816 28663.000000
3978.130615 25756.000000
3979.023926 28125.000000
3979.916748 27493.000000
3980.809326 27581.000000
3981.701660 28600.000000
3982.593262 26375.000000
3983.484619 26774.000000
3984.375732 22549.000000
3985.266357 24933.000000
3986.156494 28338.000000
3987.046387 24879.000000
3987.935791 26890.000000
3988.824707 28382.000000
3989.713379 27364.000000
3990.601562 26403.000000
3991.489502 27829.000000
3992.376953 26918.000000
3993.263916 25209.000000
3994.150635 26057.000000
3995.036865 28538.000000
3995.922852 27350.000000
3996.808350 23937.000000
3997.693359 26906.000000
3998.578125 23661.000000
3999.462402 23560.000000
4000.346436 23460.000000
4001.229980 27306.000000
4002.113037 26786.000000
4002.995850 28523.000000
4003.878174 23963.000000
4004.760254 22450.000000
4005.641846 27983.000000
4006.522949 29094.000000
4007.403809 28754.000000
4008.284180 23192.000000
4009.164307 27695.000000
4010.043945 23059.000000
4010.923340 24788.000000
4011.802002 24076.000000
4012.680664 23956.000000
4013.558594 24042.000000
4014.436279 24129.000000
4015.313721 27109.000000
4016.190430 21638.000000
4017.067139 23237.000000
4017.943115 27200.000000
4018.818848 26240.000000
4019.694336 22569.000000
4020.569336 22528.000000
4021.443848 24152.000000
4022.318115 26477.000000
4023.191895 26052.000000
4024.065186 25671.000000
4024.938232 24508.000000
4025.811035 27412.000000
4026.683105 25371.000000
4027.554932 22189.000000
4028.426514 24804.000000
4029.297607 21105.000000
4030.168213 25377.000000
4031.038574 28191.000000
4031.908447 26189.000000
4032.778076 27528.000000
4033.647217 22154.000000
4034.515869 26982.000000
4035.384277 26520.000000
4036.252197 22962.000000
4037.119873 25309.000000
4037.987061 25028.000000
4038.853760 28462.000000
4039.720215 27905.000000
4040.586426 26999.000000
4041.451904 22588.000000
4042.317139 20743.000000
4043.182129 25038.000000
