357.375458 7056.000000
359.645844 6790.000000
361.915375 6710.000000
364.184021 5945.000000
366.451874 5980.000000
368.718842 5246.000000
370.984955 6587.000000
373.250244 6325.000000
375.514679 6647.000000
377.778290 6923.000000
380.041016 7800.000000
382.302917 8374.000000
384.563965 8451.000000
386.824158 8297.000000
389.083527 8602.000000
391.342041 8031.000000
393.599701 8036.000000
395.856537 8120.000000
398.112518 8169.000000
400.367676 8060.000000
402.621948 8321.000000
404.875427 8904.000000
407.128021 8619.000000
409.379791 8512.000000
411.630737 9620.000000
413.880829 9914.000000
416.130066 10004.000000
418.378479 9200.000000
420.626038 9112.000000
422.872772 8931.000000
425.118652 8132.000000
427.363708 8116.000000
429.607910 8025.000000
431.851288 7751.000000
434.093842 7321.000000
436.335510 6815.000000
438.576385 7425.000000
440.816406 7573.000000
443.055603 6847.000000
445.293945 6843.000000
447.531464 6334.000000
449.768127 7380.000000
452.003998 7194.000000
454.238983 6915.000000
456.473175 6540.000000
458.706512 5417.000000
460.939026 6668.000000
463.170685 6591.000000
465.401520 6748.000000
467.631531 6437.000000
469.860718 6981.000000
472.089050 7512.000000
474.316559 7690.000000
476.543243 7910.000000
478.769104 7671.000000
480.994110 8067.000000
483.218323 8319.000000
485.441681 7506.000000
487.664215 8141.000000
489.885895 7121.000000
492.106781 7716.000000
494.326813 7641.000000
496.546021 7741.000000
498.764435 7731.000000
500.981995 8539.000000
503.198700 8005.000000
505.414612 8426.000000
507.629700 7631.000000
509.843964 8816.000000
512.057373 9320.000000
514.269958 9943.000000
516.481750 9618.000000
518.692688 8279.000000
520.902832 7769.000000
523.112122 7099.000000
525.320618 5473.000000
527.528259 6029.000000
529.735107 5184.000000
531.941101 5260.000000
534.146301 5559.000000
536.350708 5162.000000
538.554260 5784.000000
540.756958 5756.000000
542.958862 5574.000000
545.159973 5825.000000
547.360229 5239.000000
549.559631 5246.000000
551.758301 4428.000000
553.956055 5538.000000
556.153076 5383.000000
558.349243 4825.000000
560.544556 5429.000000
562.739136 5513.000000
564.932800 5161.000000
567.125732 5442.000000
569.317810 5553.000000
571.509033 5620.000000
573.699524 5879.000000
575.889160 5564.000000
578.077942 4870.000000
580.265930 5767.000000
582.453125 5748.000000
584.639526 5043.000000
586.825073 5738.000000
589.009827 4798.000000
591.193726 5344.000000
593.376831 5674.000000
595.559143 5711.000000
597.740662 5756.000000
599.921326 5842.000000
602.101196 4981.000000
604.280212 5548.000000
606.458496 5721.000000
608.635925 4911.000000
610.812561 5721.000000
612.988342 5241.000000
615.163330 5514.000000
617.337524 5246.000000
619.510925 4986.000000
621.683472 4861.000000
623.855286 4736.000000
626.026245 5352.000000
628.196350 5474.000000
630.365723 4366.000000
632.534241 5001.000000
634.701965 5543.000000
636.868896 5656.000000
639.035034 5566.000000
641.200317 5562.000000
643.364807 4965.000000
645.528503 5258.000000
647.691406 5411.000000
649.853516 5498.000000
652.014832 4471.000000
654.175293 5400.000000
656.334961 5202.000000
658.493835 4837.000000
660.651917 5348.000000
662.809204 5331.000000
664.965637 5461.000000
667.121338 5360.000000
669.276184 5690.000000
671.430237 4725.000000
673.583496 5514.000000
675.735962 5719.000000
677.887634 5504.000000
680.038513 5219.000000
682.188538 5107.000000
684.337830 5722.000000
686.486267 5114.000000
688.633972 4283.000000
690.780823 5045.000000
692.926880 5821.000000
695.072144 5663.000000
697.216614 5233.000000
699.360291 5199.000000
701.503174 4966.000000
703.645264 5339.000000
705.786560 4573.000000
707.927063 5598.000000
710.066772 5728.000000
712.205688 4872.000000
714.343750 5984.000000
716.481079 5543.000000
718.617615 6103.000000
720.753357 5438.000000
722.888245 5574.000000
725.022400 5423.000000
727.155762 5107.000000
729.288330 4679.000000
731.420044 5825.000000
733.551025 5699.000000
735.681213 4604.000000
737.810608 5491.000000
739.939209 5661.000000
742.067017 4999.000000
744.194031 5616.000000
746.320251 4881.000000
748.445679 4929.000000
750.570312 4977.000000
752.694214 5601.000000
754.817261 5749.000000
756.939575 5693.000000
759.061035 5680.000000
761.181763 4862.000000
763.301697 5455.000000
765.420776 5863.000000
767.539124 5757.000000
769.656738 5164.000000
771.773499 5535.000000
773.889465 4522.000000
776.004700 5501.000000
778.119080 5756.000000
780.232727 5068.000000
782.345581 5545.000000
784.457642 4540.000000
786.568909 4943.000000
788.679443 4984.000000
790.789124 5184.000000
792.898071 5146.000000
795.006226 4718.000000
797.113586 4885.000000
799.220154 5492.000000
801.325989 4709.000000
803.430969 5564.000000
805.535217 5211.000000
807.638672 5462.000000
809.741394 5525.000000
811.843262 6071.000000
813.944397 5500.000000
816.044739 5510.000000
818.144287 5379.000000
820.243103 5685.000000
822.341064 5792.000000
824.438293 5337.000000
826.534790 5758.000000
828.630432 6053.000000
830.725342 5180.000000
832.819458 5228.000000
834.912781 5733.000000
837.005371 4444.000000
839.097168 4342.000000
841.188171 5817.000000
843.278381 5954.000000
845.367859 4382.000000
847.456543 4437.000000
849.544434 5184.000000
851.631592 4597.000000
853.717957 5111.000000
855.803589 5475.000000
857.888367 5734.000000
859.972412 5912.000000
862.055725 5066.000000
864.138184 5735.000000
866.219971 4908.000000
868.300903 5392.000000
870.381104 5350.000000
872.460510 5777.000000
874.539185 5719.000000
876.617004 5883.000000
878.694153 5778.000000
880.770508 5068.000000
882.846069 5285.000000
884.920837 5708.000000
886.994873 4989.000000
889.068115 5986.000000
891.140625 5598.000000
893.212341 5652.000000
895.283325 5877.000000
897.353516 5839.000000
899.422913 5505.000000
901.491577 6308.000000
903.559509 5965.000000
905.626587 5247.000000
907.692993 6080.000000
909.758545 6137.000000
911.823364 5716.000000
913.887451 6209.000000
915.950745 5116.000000
918.013306 5971.000000
920.075073 5349.000000
922.136047 5964.000000
924.196289 6149.000000
926.255798 5042.000000
928.314514 5446.000000
930.372498 4923.000000
932.429688 6164.000000
934.486084 5534.000000
936.541809 6298.000000
938.596680 6024.000000
940.650818 6090.000000
942.704224 5421.000000
944.756836 5815.000000
946.808716 6191.000000
948.859863 5937.000000
950.910217 6284.000000
952.959778 6119.000000
955.008606 5933.000000
957.056702 6174.000000
959.104004 5002.000000
961.150574 5297.000000
963.196350 5350.000000
965.241394 5403.000000
967.285706 5533.000000
969.329224 6282.000000
971.372009 5810.000000
973.414062 4619.000000
975.455322 4954.000000
977.495789 5271.000000
979.535583 5254.000000
981.574585 5237.000000
983.612793 5901.000000
985.650269 5277.000000
987.687012 5480.000000
989.723022 5395.000000
991.758240 5694.000000
993.792725 6228.000000
995.826416 5608.000000
997.859436 5591.000000
999.891663 5288.000000
1001.923096 5563.000000
1003.953796 5878.000000
1005.983765 4922.000000
1008.013000 5084.000000
1010.041443 5246.000000
1012.069153 5559.000000
1014.096130 6650.000000
1016.122375 6053.000000
1018.147827 5888.000000
1020.172546 5339.000000
1022.196472 6141.000000
1024.219727 6579.000000
1026.242188 6247.000000
1028.263916 5443.000000
1030.284912 6538.000000
1032.305054 6317.000000
1034.324585 5980.000000
1036.343262 5639.000000
1038.361328 6554.000000
1040.378540 6366.000000
1042.395020 6505.000000
1044.410767 5457.000000
1046.425781 6280.000000
1048.440063 5546.000000
1050.453613 5171.000000
1052.466309 6281.000000
1054.478394 6390.000000
1056.489624 6539.000000
1058.500244 6201.000000
1060.510010 5503.000000
1062.519043 5861.000000
1064.527344 6200.000000
1066.534912 5123.000000
1068.541748 5278.000000
1070.547852 5434.000000
1072.553223 6303.000000
1074.557739 6493.000000
1076.561646 6160.000000
1078.564697 5729.000000
1080.567139 6278.000000
1082.568726 6197.000000
1084.569702 5569.000000
1086.569824 6250.000000
1088.569214 6308.000000
1090.567871 5765.000000
1092.565918 6034.000000
1094.563110 5969.000000
1096.559570 6968.000000
1098.555298 6899.000000
1100.550293 5168.000000
1102.544556 5770.000000
1104.538086 6428.000000
1106.530884 6779.000000
1108.522827 7052.000000
1110.514160 6244.000000
1112.504761 5427.000000
1114.494629 6531.000000
1116.483643 6219.000000
1118.472046 6562.000000
1120.459717 6023.000000
1122.446655 5887.000000
1124.432739 7020.000000
1126.418213 6338.000000
1128.402954 6974.000000
1130.386841 7079.000000
1132.370117 7077.000000
1134.352661 6806.000000
1136.334351 6637.000000
1138.315430 5719.000000
1140.295776 6604.000000
1142.275269 7297.000000
1144.254150 6168.000000
1146.232300 6805.000000
1148.209595 6530.000000
1150.186279 6891.000000
1152.162231 5795.000000
1154.137451 6356.000000
1156.111816 6380.000000
1158.085571 6900.000000
1160.058594 7016.000000
1162.030884 6723.000000
1164.002441 5867.000000
1165.973267 5774.000000
1167.943359 5682.000000
1169.912720 5317.000000
1171.881348 7122.000000
1173.849243 7032.000000
1175.816406 6525.000000
1177.782959 6667.000000
1179.748657 7380.000000
1181.713623 7037.000000
1183.677979 6095.000000
1185.641479 6844.000000
1187.604370 7318.000000
1189.566406 7445.000000
1191.527832 6688.000000
1193.488525 6874.000000
1195.448364 7004.000000
1197.407593 7209.000000
1199.366089 7439.000000
1201.323853 7208.000000
1203.280884 7314.000000
1205.237183 6429.000000
1207.192871 7592.000000
1209.147705 7047.000000
1211.101807 7313.000000
1213.055298 6263.000000
1215.008057 6522.000000
1216.959961 7246.000000
1218.911255 6632.000000
1220.861816 7098.000000
1222.811646 7104.000000
1224.760742 6852.000000
1226.709229 7852.000000
1228.656860 6899.000000
1230.603760 7911.000000
1232.550049 7344.000000
1234.495605 7261.000000
1236.440430 7399.000000
1238.384399 5969.000000
1240.327881 6638.000000
1242.270508 6846.000000
1244.212402 6720.000000
1246.153687 7571.000000
1248.094116 7390.000000
1250.033936 7765.000000
1251.973022 6956.000000
1253.911377 6564.000000
1255.848999 6286.000000
1257.785889 6311.000000
1259.722168 6337.000000
1261.657593 6690.000000
1263.592407 6718.000000
1265.526489 7567.000000
1267.459839 7921.000000
1269.392456 7216.000000
1271.324341 6715.000000
1273.255615 6494.000000
1275.186157 7525.000000
1277.115845 7379.000000
1279.044922 7468.000000
1280.973389 7362.000000
1282.901001 7327.000000
1284.828003 7549.000000
1286.754150 7300.000000
1288.679688 7455.000000
1290.604492 8164.000000
1292.528687 7716.000000
1294.452026 8018.000000
1296.374756 7500.000000
1298.296753 8173.000000
1300.218018 8392.000000
1302.138550 8163.000000
1304.058350 7935.000000
1305.977539 7931.000000
1307.895996 8321.000000
1309.813721 8000.000000
1311.730713 7199.000000
1313.646973 7358.000000
1315.562622 8006.000000
1317.477539 8058.000000
1319.391724 8103.000000
1321.305176 8247.000000
1323.218018 7987.000000
1325.130127 7879.000000
1327.041504 7749.000000
1328.952148 7947.000000
1330.862061 7251.000000
1332.771362 8115.000000
1334.679932 7458.000000
1336.587769 8187.000000
1338.494873 7696.000000
1340.401367 7207.000000
1342.307129 8147.000000
1344.212158 7332.000000
1346.116455 7787.000000
1348.020142 8276.000000
1349.923096 6847.000000
1351.825317 8297.000000
1353.726807 7403.000000
1355.627686 8559.000000
1357.527832 9177.000000
1359.427246 8393.000000
1361.325928 8079.000000
1363.223999 7689.000000
1365.121338 8063.000000
1367.017944 7166.000000
1368.913940 8451.000000
1370.809082 8754.000000
1372.703613 7419.000000
1374.597534 7796.000000
1376.490601 8332.000000
1378.383057 8654.000000
1380.274780 8613.000000
1382.165894 8362.000000
1384.056152 8522.000000
1385.945801 8313.000000
1387.834839 8297.000000
1389.723022 8571.000000
1391.610596 8336.000000
1393.497559 7439.000000
1395.383667 7812.000000
1397.269165 8580.000000
1399.153931 8103.000000
1401.038086 8055.000000
1402.921387 7974.000000
1404.804077 8827.000000
1406.686157 8816.000000
1408.567505 8638.000000
1410.448120 8422.000000
1412.328003 9013.000000
1414.207275 8044.000000
1416.085815 8912.000000
1417.963623 8078.000000
1419.840820 8791.000000
1421.717285 8249.000000
1423.593018 7708.000000
1425.468140 8607.000000
1427.342529 9109.000000
1429.216187 8112.000000
1431.089233 7807.000000
1432.961548 8873.000000
1434.833130 9012.000000
1436.704102 7295.000000
1438.574341 8757.000000
1440.443970 9441.000000
1442.312744 8723.000000
1444.181030 9114.000000
1446.048462 8561.000000
1447.915283 8995.000000
1449.781372 9179.000000
1451.646851 9584.000000
1453.511597 7607.000000
1455.375610 9244.000000
1457.239014 8691.000000
1459.101685 8265.000000
1460.963745 9271.000000
1462.824951 9488.000000
1464.685669 8965.000000
1466.545532 9138.000000
1468.404785 8399.000000
1470.263428 9449.000000
1472.121338 9459.000000
1473.978516 9783.000000
1475.834961 9485.000000
1477.690796 8111.000000
1479.546021 8917.000000
1481.400513 9223.000000
1483.254272 9021.000000
1485.107422 9324.000000
1486.959839 9291.000000
1488.811523 9342.000000
1490.662598 9057.000000
1492.512939 8960.000000
1494.362671 8558.000000
1496.211670 8508.000000
1498.059937 7426.000000
1499.907593 9400.000000
1501.754639 10089.000000
1503.600830 9722.000000
1505.446533 9642.000000
1507.291382 8914.000000
1509.135620 8948.000000
1510.979248 9149.000000
1512.822144 10077.000000
1514.664307 9610.000000
1516.505859 9329.000000
1518.346680 9410.000000
1520.186890 9462.000000
1522.026367 9137.000000
1523.865234 9602.000000
1525.703369 9954.000000
1527.540771 9227.000000
1529.377563 10026.000000
1531.213745 9571.000000
1533.049194 8880.000000
1534.883911 8695.000000
1536.718018 9583.000000
1538.551392 9068.000000
1540.384155 8573.000000
1542.216187 9921.000000
1544.047607 9904.000000
1545.878296 8594.000000
1547.708374 9144.000000
1549.537720 9950.000000
1551.366333 9808.000000
1553.194336 9821.000000
1555.021729 10226.000000
1556.848389 9865.000000
1558.674438 9450.000000
1560.499756 9895.000000
1562.324341 9753.000000
1564.148315 9797.000000
1565.971680 9807.000000
1567.794312 9501.000000
1569.616211 9758.000000
1571.437500 9758.000000
1573.258179 9932.000000
1575.078125 9269.000000
1576.897339 9989.000000
1578.715942 9334.000000
1580.533936 10417.000000
1582.351196 10197.000000
1584.167847 10105.000000
1585.983765 9259.000000
1587.798950 7959.000000
1589.613647 8834.000000
1591.427490 10031.000000
1593.240723 10359.000000
1595.053345 9260.000000
1596.865234 10240.000000
1598.676514 10118.000000
1600.487183 9365.000000
1602.297119 8886.000000
1604.106323 10348.000000
1605.914917 10388.000000
1607.722778 9760.000000
1609.530029 9915.000000
1611.336670 10557.000000
1613.142578 10124.000000
1614.947876 9779.000000
1616.752441 10490.000000
1618.556396 9097.000000
1620.359619 9042.000000
1622.162231 9558.000000
1623.964233 10170.000000
1625.765503 10345.000000
1627.566040 10304.000000
1629.366089 9393.000000
1631.165283 10087.000000
1632.963989 10157.000000
1634.761963 10060.000000
1636.559204 8764.000000
1638.355835 10483.000000
1640.151855 10504.000000
1641.947144 10063.000000
1643.741821 10587.000000
1645.535767 10522.000000
1647.329102 10874.000000
1649.121826 9778.000000
1650.913818 9631.000000
1652.705200 10678.000000
1654.495850 10192.000000
1656.285889 10375.000000
1658.075195 10512.000000
1659.864014 10524.000000
1661.651978 11009.000000
1663.439453 9457.000000
1665.226196 10633.000000
1667.012207 9455.000000
1668.797607 10865.000000
1670.582397 10729.000000
1672.366577 10568.000000
1674.150024 10579.000000
1675.932739 10920.000000
1677.714966 10226.000000
1679.496338 10458.000000
1681.277222 10395.000000
1683.057373 11046.000000
1684.836914 9368.000000
1686.615723 9818.000000
1688.393921 10472.000000
1690.171509 10988.000000
1691.948364 10636.000000
1693.724609 10774.000000
1695.500244 10286.000000
1697.275146 10769.000000
1699.049438 10492.000000
1700.822998 10849.000000
1702.596069 10690.000000
1704.368286 10180.000000
1706.140015 9258.000000
1707.911011 10750.000000
1709.681396 10534.000000
1711.451050 10553.000000
1713.220093 11072.000000
1714.988525 10494.000000
1716.756226 10775.000000
1718.523438 10257.000000
1720.289795 9110.000000
1722.055664 9994.000000
1723.820801 9556.000000
1725.585327 10615.000000
1727.349121 10587.000000
1729.112305 10463.000000
1730.874878 10396.000000
1732.636841 9835.000000
1734.398071 10707.000000
1736.158691 10564.000000
1737.918579 10447.000000
1739.677856 11022.000000
1741.436523 10484.000000
1743.194580 10353.000000
1744.951904 9196.000000
1746.708618 10713.000000
1748.464722 11071.000000
1750.220093 9797.000000
1751.974976 9984.000000
1753.729004 11000.000000
1755.482544 11053.000000
1757.235352 10774.000000
1758.987549 10816.000000
1760.739136 10462.000000
1762.489990 10527.000000
1764.240234 10619.000000
1765.989868 10877.000000
1767.738892 10674.000000
1769.487183 10336.000000
1771.234863 11193.000000
1772.981934 11194.000000
1774.728271 11194.000000
1776.473999 10690.000000
1778.219116 11170.000000
1779.963623 9372.000000
1781.707397 10324.000000
1783.450562 10214.000000
1785.193115 10329.000000
1786.935059 9126.000000
1788.676270 10087.000000
1790.416870 10477.000000
1792.156860 9970.000000
1793.896118 11211.000000
1795.634888 10708.000000
1797.372925 10558.000000
1799.110229 10469.000000
1800.847046 10621.000000
1802.583130 11364.000000
1804.318726 10632.000000
1806.053467 10962.000000
1807.787720 11021.000000
1809.521240 10590.000000
1811.254272 10799.000000
1812.986450 10302.000000
1814.718140 11031.000000
1816.449219 10721.000000
1818.179565 9825.000000
1819.909302 11359.000000
1821.638428 10967.000000
1823.366821 11054.000000
1825.094727 10789.000000
1826.821899 11011.000000
1828.548462 10946.000000
1830.274292 11073.000000
1831.999634 10894.000000
1833.724243 10763.000000
1835.448242 10744.000000
1837.171631 10192.000000
1838.894409 10048.000000
1840.616455 10146.000000
1842.338013 11051.000000
1844.058838 10491.000000
1845.779053 10849.000000
1847.498535 10818.000000
1849.217529 11069.000000
1850.935791 10325.000000
1852.653442 10820.000000
1854.370483 10920.000000
1856.086914 10351.000000
1857.802734 10541.000000
1859.517822 10239.000000
1861.232300 11111.000000
1862.946167 11517.000000
1864.659424 11068.000000
1866.372070 11123.000000
1868.084106 9997.000000
1869.795410 10559.000000
1871.506104 10679.000000
1873.216187 11233.000000
1874.925659 9660.000000
1876.634521 9644.000000
1878.342651 10229.000000
1880.050293 11199.000000
1881.757202 11255.000000
1883.463501 11044.000000
1885.169189 10087.000000
1886.874268 11272.000000
1888.578613 10039.000000
1890.282471 10422.000000
1891.985596 10928.000000
1893.688110 10436.000000
1895.390015 10915.000000
1897.091309 11021.000000
1898.791992 9636.000000
1900.492065 10989.000000
1902.191406 11112.000000
1903.890259 11389.000000
1905.588379 10505.000000
1907.285889 10919.000000
1908.982788 10739.000000
1910.679077 9790.000000
1912.374756 10936.000000
1914.069702 10590.000000
1915.764160 9996.000000
1917.457886 9919.000000
1919.151001 10300.000000
1920.843506 9987.000000
1922.535522 9654.000000
1924.226685 9803.000000
1925.917358 9864.000000
1927.607422 10895.000000
1929.296875 10959.000000
1930.985596 10379.000000
1932.673706 10804.000000
1934.361328 11234.000000
1936.048218 10596.000000
1937.734497 10135.000000
1939.420166 10306.000000
1941.105225 10760.000000
1942.789673 10772.000000
1944.473511 10426.000000
1946.156616 10789.000000
1947.839233 10857.000000
1949.521118 10297.000000
1951.202515 10514.000000
1952.883179 10899.000000
1954.563232 10605.000000
1956.242676 10385.000000
1957.921631 10887.000000
1959.599854 10955.000000
1961.277466 10073.000000
1962.954346 9397.000000
1964.630737 10524.000000
1966.306519 10408.000000
1967.981689 10516.000000
1969.656128 10415.000000
1971.330078 10035.000000
1973.003296 10783.000000
1974.676025 10595.000000
1976.348022 10939.000000
1978.019531 9884.000000
1979.690308 10524.000000
1981.360474 10699.000000
1983.030029 10338.000000
1984.698975 10564.000000
1986.367432 11036.000000
1988.035156 9669.000000
1989.702271 10401.000000
1991.368774 10129.000000
1993.034668 9827.000000
1994.699829 10657.000000
1996.364502 10385.000000
1998.028564 10665.000000
1999.692017 9722.000000
2001.354858 10337.000000
2003.016968 10338.000000
2004.678589 9194.000000
2006.339600 10801.000000
2008.000000 10544.000000
2009.659668 10416.000000
2011.318848 9852.000000
2012.977417 9938.000000
2014.635254 8983.000000
2016.292603 10723.000000
2017.949219 10436.000000
2019.605347 10052.000000
2021.260864 10217.000000
2022.915649 10252.000000
2024.569946 10567.000000
2026.223511 10176.000000
2027.876587 10765.000000
2029.528931 9384.000000
2031.180786 9458.000000
2032.832031 10198.000000
2034.482544 9115.000000
2036.132568 10491.000000
2037.781860 9261.000000
2039.430664 10018.000000
2041.078857 10040.000000
2042.726318 9706.000000
2044.373291 8621.000000
2046.019653 9723.000000
2047.665283 10481.000000
2049.310547 10421.000000
2050.954834 9277.000000
2052.598877 10065.000000
2054.242188 10450.000000
2055.884766 9841.000000
2057.526855 9227.000000
2059.168213 10402.000000
2060.809082 9423.000000
2062.449463 10096.000000
2064.089111 8835.000000
2065.728027 9598.000000
2067.366455 9306.000000
2069.004395 11161.000000
2070.641602 10422.000000
2072.278320 10252.000000
2073.914307 9120.000000
2075.549805 9949.000000
2077.184570 10672.000000
2078.818604 9931.000000
2080.452393 10277.000000
2082.085205 10790.000000
2083.717773 10495.000000
2085.349609 10245.000000
2086.980713 9860.000000
2088.611328 10554.000000
2090.241211 10305.000000
2091.870605 10238.000000
2093.499512 10082.000000
2095.127686 8522.000000
2096.755127 10622.000000
2098.382080 10160.000000
2100.008545 10019.000000
2101.634277 9850.000000
2103.259521 10016.000000
2104.884033 10012.000000
2106.508057 10436.000000
2108.131348 9206.000000
2109.754150 9882.000000
2111.376465 9722.000000
2112.998047 10521.000000
2114.618896 10238.000000
2116.239258 10248.000000
2117.859131 9599.000000
2119.478271 10108.000000
2121.096924 9712.000000
2122.714844 9498.000000
2124.332275 9651.000000
2125.948975 10147.000000
2127.565186 10341.000000
2129.180664 10113.000000
2130.795654 9526.000000
2132.410156 9478.000000
2134.023926 10794.000000
2135.637207 10248.000000
2137.249756 9684.000000
2138.861816 8645.000000
2140.473145 9294.000000
2142.083984 10040.000000
2143.694092 9653.000000
2145.303955 10055.000000
2146.912842 9538.000000
2148.521240 10164.000000
2150.129150 10418.000000
2151.736328 8679.000000
2153.343018 10115.000000
2154.949219 9932.000000
2156.554688 9749.000000
2158.159424 8867.000000
2159.763672 9603.000000
2161.367432 8931.000000
2162.970459 9424.000000
2164.572998 10030.000000
2166.174805 9918.000000
2167.776123 8962.000000
2169.376953 10071.000000
2170.977051 9779.000000
2172.576660 9112.000000
2174.175537 10339.000000
2175.773926 9854.000000
2177.371582 8451.000000
2178.968750 9426.000000
2180.565430 8302.000000
2182.161377 8309.000000
2183.756836 8317.000000
2185.351562 8198.000000
2186.945801 9542.000000
2188.539551 8848.000000
2190.132568 9274.000000
2191.724854 8633.000000
2193.316895 9495.000000
2194.908203 9638.000000
2196.498779 8915.000000
2198.088867 8547.000000
2199.678467 9728.000000
2201.267334 7944.000000
2202.855713 8711.000000
2204.443359 8905.000000
2206.030518 9157.000000
2207.617188 8700.000000
2209.203125 9121.000000
2210.788574 8343.000000
2212.373291 9486.000000
2213.957520 9002.000000
2215.541016 7429.000000
2217.124268 8959.000000
2218.706543 9698.000000
2220.288574 7480.000000
2221.869873 8884.000000
2223.450439 10024.000000
2225.030518 9750.000000
2226.610107 9845.000000
2228.189209 9045.000000
2229.767578 9805.000000
2231.345215 9958.000000
2232.922363 9687.000000
2234.499023 9335.000000
2236.074951 9593.000000
2237.650391 9686.000000
2239.225342 8862.000000
2240.799561 9089.000000
2242.373291 8206.000000
2243.946533 9284.000000
2245.519043 8205.000000
2247.090820 9222.000000
2248.662354 9806.000000
2250.233154 9516.000000
2251.803223 9166.000000
2253.372803 8514.000000
2254.941895 9262.000000
2256.510254 8726.000000
2258.078125 9274.000000
2259.645508 8266.000000
2261.212158 8796.000000
2262.778320 8790.000000
2264.343994 8955.000000
2265.908936 8812.000000
2267.473145 9578.000000
2269.037109 8498.000000
2270.600342 9320.000000
2272.162842 9702.000000
2273.725098 9367.000000
2275.286621 8384.000000
2276.847412 9931.000000
2278.407715 9416.000000
2279.967529 9189.000000
2281.526611 8658.000000
2283.085205 8410.000000
2284.643311 9169.000000
2286.200684 8457.000000
2287.757568 7945.000000
2289.313965 7734.000000
2290.869629 7523.000000
2292.424805 7107.000000
2293.979248 7600.000000
2295.533203 8829.000000
2297.086670 8648.000000
2298.639648 9086.000000
2300.191895 7829.000000
2301.743408 8591.000000
2303.294678 9014.000000
2304.845215 8648.000000
2306.395020 9015.000000
2307.944336 9707.000000
2309.493164 9247.000000
2311.041504 9234.000000
2312.589111 8496.000000
2314.136230 9375.000000
2315.682617 7962.000000
2317.228516 8768.000000
2318.773926 8777.000000
2320.318848 8037.000000
2321.863037 8097.000000
2323.406738 9217.000000
2324.949707 7876.000000
2326.492188 8792.000000
2328.034180 8728.000000
2329.575439 8300.000000
2331.116211 6940.000000
2332.656494 7650.000000
2334.196045 6915.000000
2335.735107 6833.000000
2337.273682 8656.000000
2338.811523 8556.000000
2340.348877 9011.000000
2341.885742 9557.000000
2343.421875 8769.000000
2344.957520 7581.000000
2346.492676 7384.000000
2348.027100 7307.000000
2349.561035 7419.000000
2351.094238 7531.000000
2352.627197 9031.000000
2354.159424 8771.000000
2355.690918 7660.000000
2357.222168 8083.000000
2358.752686 8356.000000
2360.282471 7792.000000
2361.812012 7540.000000
2363.340576 8603.000000
2364.868896 7820.000000
2366.396484 6910.000000
2367.923828 7386.000000
2369.450195 7862.000000
2370.976318 7127.000000
2372.501709 7561.000000
2374.026367 7995.000000
2375.550781 7916.000000
2377.074463 8219.000000
2378.597656 7897.000000
2380.120117 8021.000000
2381.642090 8788.000000
2383.163574 8935.000000
2384.684326 6985.000000
2386.204834 8312.000000
2387.724365 7314.000000
2389.243652 8224.000000
2390.762207 7998.000000
2392.280273 7184.000000
2393.797852 7975.000000
2395.314697 7305.000000
2396.831055 8276.000000
2398.346924 8502.000000
2399.862061 8185.000000
2401.376709 6786.000000
2402.890869 8095.000000
2404.404297 9450.000000
2405.917480 8801.000000
2407.429688 6952.000000
2408.941650 7785.000000
2410.452881 8326.000000
2411.963623 8444.000000
2413.473877 8169.000000
2414.983398 7895.000000
2416.492432 7526.000000
2418.000977 7778.000000
2419.508789 6341.000000
2421.016113 6401.000000
2422.522949 6462.000000
2424.029297 7368.000000
2425.534912 8565.000000
2427.040039 7889.000000
2428.544678 8107.000000
2430.048584 6810.000000
2431.552002 7410.000000
2433.054932 8662.000000
2434.557129 7875.000000
2436.058838 7952.000000
2437.560059 6930.000000
2439.060791 7535.000000
2440.560791 7830.000000
2442.060303 8125.000000
2443.559326 7602.000000
2445.057861 6309.000000
2446.555664 5648.000000
2448.052979 7091.000000
2449.549561 8425.000000
2451.045898 8750.000000
2452.541504 7738.000000
2454.036377 8645.000000
2455.531006 7882.000000
2457.024902 7031.000000
2458.518311 8315.000000
2460.011230 8202.000000
2461.503418 7399.000000
2462.995117 7057.000000
2464.486328 6133.000000
2465.976807 7069.000000
2467.467041 7477.000000
2468.956543 6861.000000
2470.445312 6713.000000
2471.933838 8294.000000
2473.421631 7960.000000
2474.908936 7898.000000
2476.395752 7707.000000
2477.881836 7516.000000
2479.367432 8086.000000
2480.852539 8268.000000
2482.336914 7934.000000
2483.821045 8527.000000
2485.304443 8220.000000
2486.787109 7914.000000
2488.269531 6738.000000
2489.751221 7401.000000
2491.232422 6468.000000
2492.713135 7662.000000
2494.193115 7091.000000
2495.672607 7285.000000
2497.151611 7439.000000
2498.630127 7704.000000
2500.107910 8270.000000
2501.585449 7761.000000
2503.062256 8264.000000
2504.538330 7106.000000
2506.014160 8421.000000
2507.489258 7811.000000
2508.963867 8555.000000
2510.437744 7489.000000
2511.911133 6903.000000
2513.384277 6318.000000
2514.856445 6037.000000
2516.328369 8152.000000
2517.799561 8206.000000
2519.270508 7788.000000
2520.740479 6757.000000
2522.210205 8028.000000
2523.679199 7045.000000
2525.147705 7257.000000
2526.615723 7042.000000
2528.083252 7818.000000
2529.550049 6992.000000
2531.016602 5936.000000
2532.482178 7799.000000
2533.947510 8546.000000
2535.412109 6781.000000
2536.876465 7722.000000
2538.340088 6255.000000
2539.802979 7318.000000
2541.265625 7871.000000
2542.727539 6318.000000
2544.188965 6880.000000
2545.649902 6596.000000
2547.110107 7035.000000
2548.569824 7251.000000
2550.029297 7468.000000
2551.487793 7603.000000
2552.946045 7041.000000
2554.403564 7799.000000
2555.860596 7001.000000
2557.317139 6966.000000
2558.773193 7415.000000
2560.228516 7393.000000
2561.683594 7700.000000
2563.137695 6677.000000
2564.591553 6763.000000
2566.044922 6412.000000
2567.497559 6417.000000
2568.949707 6422.000000
2570.401367 6704.000000
2571.852539 7262.000000
2573.302979 8017.000000
2574.752930 6133.000000
2576.202393 6327.000000
2577.651367 6030.000000
2579.099609 6839.000000
2580.547607 7231.000000
2581.994873 8250.000000
2583.441650 7270.000000
2584.887695 7491.000000
2586.333496 6335.000000
2587.778564 5846.000000
2589.223145 7179.000000
2590.667236 6294.000000
2592.110596 5712.000000
2593.553467 6664.000000
2594.996094 5948.000000
2596.437988 6408.000000
2597.879150 6991.000000
2599.320068 6456.000000
2600.760254 5873.000000
2602.199951 7727.000000
2603.639160 7148.000000
2605.077881 6569.000000
2606.515869 7510.000000
2607.953369 7901.000000
2609.390625 7751.000000
2610.826904 7602.000000
2612.262939 8073.000000
2613.698242 7370.000000
2615.133301 6798.000000
2616.567627 6495.000000
2618.001465 7360.000000
2619.434570 6521.000000
2620.867432 7449.000000
2622.299561 7112.000000
2623.731201 6929.000000
2625.162354 7890.000000
2626.592773 7704.000000
2628.022949 5752.000000
2629.452393 6307.000000
2630.881348 7387.000000
2632.309814 7268.000000
2633.737793 6509.000000
2635.165039 6282.000000
2636.592041 7623.000000
2638.018311 7638.000000
2639.444092 7653.000000
2640.869141 7913.000000
2642.293945 7680.000000
2643.718018 6077.000000
2645.141602 6509.000000
2646.564697 6013.000000
2647.987305 6459.000000
2649.409424 7028.000000
2650.830811 7121.000000
2652.251709 7703.000000
2653.672119 6903.000000
2655.092041 6111.000000
2656.511475 5309.000000
2657.930176 6676.000000
2659.348633 6994.000000
2660.766357 6303.000000
2662.183594 5674.000000
2663.600342 6331.000000
2665.016357 6523.000000
2666.432129 7378.000000
2667.847168 6176.000000
2669.261719 6659.000000
2670.675781 5764.000000
2672.089355 6264.000000
2673.502197 7102.000000
2674.914795 7941.000000
2676.326660 7909.000000
2677.738037 7522.000000
2679.148926 7090.000000
2680.559082 8040.000000
2681.968994 7124.000000
2683.378174 6718.000000
2684.786865 7844.000000
2686.195068 7561.000000
2687.602783 6880.000000
2689.010010 6507.000000
2690.416504 5627.000000
2691.822754 6840.000000
2693.228271 6992.000000
2694.633301 7946.000000
2696.037842 6278.000000
2697.441895 7213.000000
2698.845215 8099.000000
2700.248047 7181.000000
2701.650635 6406.000000
2703.052490 6608.000000
2704.453857 6499.000000
2705.854492 6202.000000
2707.254883 5541.000000
2708.654541 7394.000000
2710.053955 7216.000000
2711.452637 6418.000000
2712.850830 6552.000000
2714.248291 8058.000000
2715.645508 5316.000000
2717.042236 5608.000000
2718.438232 7407.000000
2719.833740 6217.000000
2721.228760 7126.000000
2722.623291 7542.000000
2724.017334 6610.000000
2725.410645 7280.000000
2726.803711 8029.000000
2728.196045 6832.000000
2729.587891 7651.000000
2730.979248 6633.000000
2732.370117 7039.000000
2733.760498 5478.000000
2735.150146 5353.000000
2736.539551 6660.000000
2737.928223 5909.000000
2739.316406 6170.000000
2740.704102 6836.000000
2742.091309 6392.000000
2743.478027 6424.000000
2744.864014 7795.000000
2746.249756 6712.000000
2747.634766 7255.000000
2749.019287 5896.000000
2750.403320 6809.000000
2751.786865 6915.000000
2753.169922 6039.000000
2754.552246 7041.000000
2755.934326 7064.000000
2757.315674 5386.000000
2758.696533 6076.000000
2760.077148 6720.000000
2761.456787 5469.000000
2762.836182 6120.000000
2764.215088 6781.000000
2765.593506 7125.000000
2766.971191 7174.000000
2768.348389 5458.000000
2769.725098 5933.000000
2771.101318 5703.000000
2772.477051 6310.000000
2773.852295 6915.000000
2775.227051 7715.000000
2776.601074 7423.000000
2777.974854 7066.000000
2779.347900 5619.000000
2780.720459 5368.000000
2782.092529 6981.000000
2783.464111 7603.000000
2784.835205 7399.000000
2786.205811 7196.000000
2787.575684 7608.000000
2788.945312 6114.000000
2790.314209 6905.000000
2791.682617 6362.000000
2793.050537 7395.000000
2794.417969 6707.000000
2795.784912 5310.000000
2797.151367 5257.000000
2798.517334 5883.000000
2799.882568 6510.000000
2801.247314 6271.000000
2802.611816 5617.000000
2803.975586 6170.000000
2805.338867 6724.000000
2806.701660 6562.000000
2808.063965 6393.000000
2809.425781 5381.000000
2810.786865 6064.000000
2812.147705 6953.000000
2813.507812 6947.000000
2814.867432 6839.000000
2816.226807 6731.000000
2817.585449 7097.000000
2818.943604 6481.000000
2820.301270 6672.000000
2821.658203 5784.000000
2823.014893 5389.000000
2824.371094 5713.000000
2825.726562 6038.000000
2827.081787 6307.000000
2828.436279 5669.000000
2829.790283 7851.000000
2831.143799 7073.000000
2832.496826 6507.000000
2833.849365 5941.000000
2835.201416 5804.000000
2836.552734 6091.000000
2837.903809 6378.000000
2839.254395 6868.000000
2840.604248 7209.000000
2841.953613 6256.000000
2843.302734 4863.000000
2844.651123 4635.000000
2845.999023 4407.000000
2847.346436 4744.000000
2848.693359 4596.000000
2850.039551 6039.000000
2851.385498 5039.000000
2852.730957 6150.000000
2854.075684 6840.000000
2855.419922 6839.000000
2856.763916 6838.000000
2858.107178 6975.000000
2859.449951 5389.000000
2860.792236 6238.000000
2862.134033 6464.000000
2863.475342 6650.000000
2864.816162 6399.000000
2866.156494 6565.000000
2867.496094 4641.000000
2868.835449 6534.000000
2870.174072 6337.000000
2871.512451 6328.000000
2872.850098 5934.000000
2874.187256 7640.000000
2875.524170 7095.000000
2876.860352 6841.000000
2878.196045 7379.000000
2879.531250 6318.000000
2880.865967 5097.000000
2882.199951 6524.000000
2883.533691 5339.000000
2884.866943 5020.000000
2886.199463 6676.000000
2887.531738 6322.000000
2888.863281 7721.000000
2890.194580 7098.000000
2891.525146 6910.000000
2892.855225 6353.000000
2894.184814 5796.000000
2895.513916 5304.000000
2896.842529 6493.000000
2898.170654 6597.000000
2899.498291 7111.000000
2900.825439 6264.000000
2902.152100 7179.000000
2903.478027 6950.000000
2904.803711 6802.000000
2906.128906 5949.000000
2907.453369 6007.000000
2908.777344 5848.000000
2910.101074 5504.000000
2911.424072 7131.000000
2912.746582 6115.000000
2914.068848 5100.000000
2915.390381 5998.000000
2916.711426 7459.000000
2918.031982 5402.000000
2919.352051 7139.000000
2920.671631 6814.000000
2921.990479 6489.000000
2923.309082 7119.000000
2924.627197 6977.000000
2925.944824 6539.000000
2927.261719 6965.000000
2928.578369 5653.000000
2929.894287 6408.000000
2931.209961 6128.000000
2932.524902 6094.000000
2933.839600 6929.000000
2935.153564 5770.000000
2936.467041 6891.000000
2937.780029 5949.000000
2939.092529 6350.000000
2940.404785 6752.000000
2941.716309 6771.000000
2943.027344 6939.000000
2944.337891 5647.000000
2945.647949 6192.000000
2946.957275 7395.000000
2948.266357 7505.000000
2949.574951 6582.000000
2950.883057 5660.000000
2952.190430 4772.000000
2953.497559 4682.000000
2954.804199 5449.000000
2956.110107 6217.000000
2957.415771 6597.000000
2958.720703 4556.000000
2960.025391 4561.000000
2961.329346 6726.000000
2962.633057 5879.000000
2963.936035 6558.000000
2965.238525 6866.000000
2966.540771 6837.000000
2967.842285 6809.000000
2969.143311 6826.000000
2970.443848 5137.000000
2971.743896 5628.000000
2973.043701 6333.000000
2974.342773 6153.000000
2975.641357 5364.000000
2976.939453 5825.000000
2978.237061 5159.000000
2979.534180 5916.000000
2980.830811 6652.000000
2982.126709 6940.000000
2983.422363 5006.000000
2984.717529 5184.000000
2986.012207 4782.000000
2987.306396 6668.000000
2988.600098 5434.000000
2989.893066 3833.000000
2991.185791 3847.000000
2992.478027 4707.000000
2993.769531 5568.000000
2995.060791 6593.000000
2996.351562 5556.000000
2997.641602 4505.000000
2998.931396 4485.000000
3000.220459 4465.000000
3001.509277 4071.000000
3002.797363 5684.000000
3004.085205 6133.000000
3005.372314 5563.000000
3006.659180 5251.000000
3007.945312 4074.000000
3009.231201 5039.000000
3010.516357 5502.000000
3011.801270 5966.000000
3013.085449 5041.000000
3014.369141 5830.000000
3015.652588 5123.000000
3016.935303 6011.000000
3018.217529 6310.000000
3019.499512 4812.000000
3020.780762 5656.000000
3022.061523 6482.000000
3023.342041 6194.000000
3024.621826 5973.000000
3025.901123 5752.000000
3027.179932 7300.000000
3028.458496 4985.000000
3029.736328 5277.000000
3031.013672 3875.000000
3032.290527 4439.000000
3033.567139 5342.000000
3034.843018 6714.000000
3036.118408 6527.000000
3037.393311 5909.000000
3038.667969 5291.000000
3039.941895 5081.000000
3041.215332 4871.000000
3042.488281 5495.000000
3043.760986 6759.000000
3045.032959 6775.000000
3046.304443 6591.000000
3047.575439 6614.000000
3048.845947 6096.000000
3050.116211 6967.000000
3051.385742 6585.000000
3052.654785 6940.000000
3053.923340 5553.000000
3055.191650 4695.000000
3056.459229 3838.000000
3057.726318 3948.000000
3058.992920 5492.000000
3060.259277 6016.000000
3061.524902 6541.000000
3062.790039 6333.000000
3064.054688 6536.000000
3065.319092 6740.000000
3066.582764 7110.000000
3067.845947 6516.000000
3069.108887 6572.000000
3070.371094 6900.000000
3071.632812 6719.000000
3072.894287 6539.000000
3074.155029 5889.000000
3075.415527 5612.000000
3076.675293 4339.000000
3077.934570 4627.000000
3079.193604 5199.000000
3080.451904 5771.000000
3081.709961 6933.000000
3082.967285 4891.000000
3084.224365 6011.000000
3085.480713 5126.000000
3086.736816 6738.000000
3087.992188 5347.000000
3089.247314 6100.000000
3090.501953 5822.000000
3091.755859 6097.000000
3093.009521 5694.000000
3094.262695 5291.000000
3095.515137 5587.000000
3096.767334 7044.000000
3098.019043 6796.000000
3099.270020 6548.000000
3100.520752 5425.000000
3101.770996 6636.000000
3103.020752 7036.000000
3104.270020 6029.000000
3105.518799 6050.000000
3106.767090 4941.000000
3108.014893 5182.000000
3109.262207 5423.000000
3110.509033 4848.000000
3111.755371 5299.000000
3113.001221 5750.000000
3114.246582 4926.000000
3115.491455 2217.000000
3116.735840 4162.000000
3117.979736 6232.000000
3119.223389 6397.000000
3120.466309 4299.000000
3121.708740 5205.000000
3122.950928 5253.000000
3124.192383 5362.000000
3125.433350 6678.000000
3126.674072 5852.000000
3127.914062 5687.000000
3129.153809 5381.000000
3130.392822 3663.000000
3131.631592 4859.000000
3132.869873 4289.000000
3134.107422 3719.000000
3135.344727 5168.000000
3136.581543 3395.000000
3137.817871 4815.000000
3139.053711 6408.000000
3140.288818 6235.000000
3141.523682 4204.000000
3142.758057 4057.000000
3143.991943 4488.000000
3145.225586 4919.000000
3146.458496 5983.000000
3147.690918 7048.000000
3148.922852 6259.000000
3150.154297 6144.000000
3151.385498 6030.000000
3152.615967 5070.000000
3153.845947 5021.000000
3155.075684 4973.000000
3156.304688 4092.000000
3157.533447 4682.000000
3158.761719 3794.000000
3159.989258 4324.000000
3161.216553 3611.000000
3162.443359 4583.000000
3163.669678 3848.000000
3164.895264 4794.000000
3166.120605 5803.000000
3167.345459 4834.000000
3168.569824 5508.000000
3169.793701 4917.000000
3171.017334 5874.000000
3172.240234 5076.000000
3173.462646 4840.000000
3174.684570 3455.000000
3175.906250 4086.000000
3177.127197 4583.000000
3178.347900 5080.000000
3179.567871 5390.000000
3180.787598 6310.000000
3182.006836 5861.000000
3183.225342 5550.000000
3184.443604 5240.000000
3185.661377 5115.000000
3186.878662 4518.000000
3188.095459 3922.000000
3189.311768 4892.000000
3190.527588 5663.000000
3191.743164 4118.000000
3192.958008 3113.000000
3194.172363 2983.000000
3195.386475 5298.000000
3196.599854 4650.000000
3197.812988 5186.000000
3199.025391 5652.000000
3200.237549 3725.000000
3201.449219 4729.000000
3202.660400 5747.000000
3203.870850 3839.000000
3205.081055 4840.000000
3206.290771 3989.000000
3207.500244 4042.000000
3208.708984 3432.000000
3209.917236 5419.000000
3211.125000 4758.000000
3212.332520 5289.000000
3213.539307 5821.000000
3214.745850 6224.000000
3215.951904 5008.000000
3217.157227 4245.000000
3218.362305 4159.000000
3219.566895 4132.000000
3220.770996 4105.000000
3221.974609 5024.000000
3223.177734 5944.000000
3224.380371 5242.000000
3225.582764 5148.000000
3226.784424 5054.000000
3227.985596 5266.000000
3229.186523 6118.000000
3230.386719 6196.000000
3231.586670 4717.000000
3232.786133 5651.000000
3233.985107 4969.000000
3235.183594 5199.000000
3236.381592 5165.000000
3237.579102 5131.000000
3238.776123 4617.000000
3239.972656 4680.000000
3241.168945 4743.000000
3242.364502 4615.000000
3243.559814 5619.000000
3244.754395 5399.000000
3245.948730 5179.000000
3247.142578 5284.000000
3248.335938 5389.000000
3249.528809 4644.000000
3250.721191 4545.000000
3251.913086 4446.000000
3253.104736 3790.000000
3254.295654 4734.000000
3255.486084 5155.000000
3256.676270 3760.000000
3257.865967 2365.000000
3259.054932 2029.000000
3260.243652 4541.000000
3261.431885 4481.000000
3262.619629 4421.000000
3263.806885 4006.000000
3264.993896 5158.000000
3266.180176 4614.000000
3267.366211 4546.000000
3268.551514 4792.000000
3269.736572 4137.000000
3270.921143 4827.000000
3272.104980 5518.000000
3273.288574 6449.000000
3274.471680 5218.000000
3275.654541 6524.000000
3276.836670 5991.000000
3278.018311 3083.000000
3279.199707 4717.000000
3280.380371 3975.000000
3281.560791 4594.000000
3282.740723 5846.000000
3283.920166 5473.000000
3285.099121 5100.000000
3286.277588 6702.000000
3287.455566 6196.000000
3288.633057 5691.000000
3289.810303 5416.000000
3290.986816 3786.000000
3292.163086 2307.000000
3293.338867 2594.000000
3294.514160 3775.000000
3295.688965 4777.000000
3296.863281 5780.000000
3298.037109 5088.000000
3299.210449 3231.000000
3300.383545 2930.000000
3301.555908 2850.000000
3302.728027 5013.000000
3303.899658 3798.000000
3305.070801 5689.000000
3306.241455 5606.000000
3307.411621 3645.000000
3308.581299 4989.000000
3309.750488 4730.000000
3310.919434 5226.000000
3312.087891 5723.000000
3313.255615 5133.000000
3314.423096 4543.000000
3315.590088 5088.000000
3316.756592 4950.000000
3317.922607 3561.000000
3319.088379 4580.000000
3320.253418 4739.000000
3321.418213 5379.000000
3322.582520 5511.000000
3323.746094 5451.000000
3324.909424 5392.000000
3326.072266 3762.000000
3327.234863 3150.000000
3328.396729 2538.000000
3329.558105 3636.000000
3330.719238 4930.000000
3331.879883 4733.000000
3333.040039 5380.000000
3334.199707 3754.000000
3335.358887 4772.000000
3336.517578 5689.000000
3337.675781 4484.000000
3338.833740 2406.000000
3339.990967 3438.000000
3341.147949 5474.000000
3342.304443 4636.000000
3343.460449 3840.000000
3344.615967 3045.000000
3345.770996 3847.000000
3346.925781 4698.000000
3348.079834 5549.000000
3349.233643 6763.000000
3350.386963 6154.000000
3351.539795 2841.000000
3352.692139 5227.000000
3353.843994 3191.000000
3354.995605 3258.000000
3356.146484 3542.000000
3357.297119 5226.000000
3358.447266 4898.000000
3359.596924 4570.000000
3360.746094 3821.000000
3361.894775 3072.000000
3363.042969 3499.000000
3364.190918 5096.000000
3365.338135 5157.000000
3366.485107 4090.000000
3367.631592 4675.000000
3368.777588 4040.000000
3369.923096 4764.000000
3371.068359 5106.000000
3372.212891 4593.000000
3373.357178 5182.000000
3374.500977 3887.000000
3375.644043 4751.000000
3376.787109 5050.000000
3377.929443 4820.000000
3379.071289 4226.000000
3380.212891 4781.000000
3381.353760 5683.000000
3382.494385 4028.000000
3383.634521 2797.000000
3384.774170 3042.000000
3385.913574 5211.000000
3387.052246 4178.000000
3388.190674 3144.000000
3389.328369 2110.000000
3390.465820 2937.000000
3391.602783 3707.000000
3392.739258 4477.000000
3393.875488 4816.000000
3395.010986 4238.000000
3396.146240 4389.000000
3397.281006 2267.000000
3398.415283 4295.000000
3399.549072 4340.000000
3400.682373 4386.000000
3401.815430 4278.000000
3402.947754 1644.000000
3404.079834 2200.000000
3405.211426 5254.000000
3406.342529 3315.000000
3407.473145 3873.000000
3408.603516 3786.000000
3409.733154 4047.000000
3410.862549 4559.000000
3411.991455 4611.000000
3413.119873 4545.000000
3414.247803 4480.000000
3415.375244 4429.000000
3416.502441 4823.000000
3417.629150 4101.000000
3418.755127 4811.000000
3419.880859 4430.000000
3421.006348 5278.000000
3422.131104 2222.000000
3423.255615 2403.000000
3424.379395 4444.000000
3425.502930 3493.000000
3426.625977 3630.000000
3427.748535 4343.000000
3428.870850 3881.000000
3429.992432 3026.000000
3431.113770 2172.000000
3432.234619 3097.000000
3433.354980 3277.000000
3434.474854 3458.000000
3435.594482 3482.000000
3436.713379 4225.000000
3437.832031 4598.000000
3438.950195 4375.000000
3440.067871 4153.000000
3441.185059 3384.000000
3442.302002 2989.000000
3443.418213 2434.000000
3444.534180 2470.000000
3445.649658 3322.000000
3446.764648 4175.000000
3447.879150 4046.000000
3448.993408 3876.000000
3450.107178 3282.000000
3451.220215 4117.000000
3452.333008 4291.000000
3453.445557 4170.000000
3454.557373 4049.000000
3455.668945 4269.000000
3456.779785 4490.000000
3457.890381 5126.000000
3459.000488 4395.000000
3460.110352 3564.000000
3461.219482 4096.000000
3462.328369 3067.000000
3463.436768 2039.000000
3464.544678 2742.000000
3465.652100 3516.000000
3466.759033 4291.000000
3467.865723 3705.000000
3468.971924 3119.000000
3470.077637 3240.000000
3471.182861 3737.000000
3472.287598 2984.000000
3473.392090 3493.000000
3474.496094 4003.000000
3475.599365 4126.000000
3476.702637 4249.000000
3477.805176 4174.000000
3478.907227 3831.000000
3480.009033 4443.000000
3481.110352 4133.000000
3482.211182 4269.000000
3483.311523 3805.000000
3484.411621 5819.000000
3485.510986 4653.000000
3486.610107 2705.000000
3487.708740 2050.000000
3488.806885 1523.000000
3489.904785 996.000000
3491.001953 1645.000000
3492.098877 3861.000000
3493.195312 5172.000000
3494.291260 2397.000000
3495.386963 5031.000000
3496.481934 5386.000000
3497.576660 2994.000000
3498.670898 3496.000000
3499.764648 2687.000000
3500.858154 3857.000000
3501.950928 2631.000000
3503.043457 2752.000000
3504.135498 3256.000000
3505.227051 3761.000000
3506.318359 3658.000000
3507.408936 4130.000000
3508.499268 3832.000000
3509.589111 3534.000000
3510.678467 3253.000000
3511.767578 2416.000000
3512.855957 4284.000000
3513.944092 3610.000000
3515.031738 4592.000000
3516.118896 3815.000000
3517.205811 3727.000000
3518.291992 3640.000000
3519.377930 3489.000000
3520.463379 3798.000000
3521.548584 4107.000000
3522.633057 4031.000000
3523.717285 2622.000000
3524.801025 3120.000000
3525.884277 3998.000000
3526.967041 3801.000000
3528.049561 3989.000000
3529.131348 3857.000000
3530.212891 4393.000000
3531.293945 3101.000000
3532.374756 1757.000000
3533.454834 2357.000000
3534.534668 2958.000000
3535.614014 3994.000000
3536.693115 2665.000000
3537.771484 3030.000000
3538.849609 3396.000000
3539.927002 3503.000000
3541.004395 3383.000000
3542.081055 4570.000000
3543.157227 4264.000000
3544.233154 4737.000000
3545.308594 2717.000000
3546.383545 3322.000000
3547.458252 2149.000000
3548.532227 3173.000000
3549.605957 2393.000000
3550.679199 1614.000000
3551.752197 2567.000000
3552.824463 3521.000000
3553.896484 4371.000000
3554.968018 3679.000000
3556.039062 4344.000000
3557.109619 4448.000000
3558.179932 4329.000000
3559.249756 3020.000000
3560.319092 3066.000000
3561.387939 2163.000000
3562.456543 2570.000000
3563.524414 2006.000000
3564.592041 3456.000000
3565.659424 2795.000000
3566.726074 2817.000000
3567.792480 3460.000000
3568.858398 3327.000000
3569.923828 3195.000000
3570.988770 3127.000000
3572.053467 2946.000000
3573.117432 2765.000000
3574.181152 2815.000000
3575.244629 4107.000000
3576.307373 2316.000000
3577.369873 3243.000000
3578.431885 709.000000
3579.493408 892.000000
3580.554688 1278.000000
3581.615234 1115.000000
3582.675537 4761.000000
3583.735352 2199.000000
3584.794922 3446.000000
3585.853760 3299.000000
3586.912354 3831.000000
3587.970459 4084.000000
3589.028076 4338.000000
3590.085449 4250.000000
3591.142334 3439.000000
3592.198730 2629.000000
3593.254639 3036.000000
3594.310059 3586.000000
3595.365234 3404.000000
3596.419922 2715.000000
3597.474121 1989.000000
3598.528076 2634.000000
3599.581299 2144.000000
3600.634277 1654.000000
3601.687012 3059.000000
3602.739014 2706.000000
3603.790771 3814.000000
3604.842041 2006.000000
3605.892822 1950.000000
3606.943115 1895.000000
3607.993164 1900.000000
3609.042725 3089.000000
3610.091797 2785.000000
3611.140381 2813.000000
3612.188721 4023.000000
3613.236572 3631.000000
3614.283936 3240.000000
3615.330811 4066.000000
3616.377441 3592.000000
3617.423340 2407.000000
3618.469238 1984.000000
3619.514404 1826.000000
3620.559326 2146.000000
3621.603516 2467.000000
3622.647461 1923.000000
3623.691162 2996.000000
3624.734131 3035.000000
3625.776855 1986.000000
3626.819092 2639.000000
3627.861084 2384.000000
3628.902344 2130.000000
3629.943359 2182.000000
3630.983887 2592.000000
3632.024170 3002.000000
3633.063721 2662.000000
3634.103027 2409.000000
3635.141846 2157.000000
3636.180420 2761.000000
3637.218262 1581.000000
3638.255859 2341.000000
3639.292969 1916.000000
3640.329834 1491.000000
3641.366211 942.000000
3642.401855 1247.000000
3643.437500 1552.000000
3644.472412 1473.000000
3645.507080 3548.000000
3646.541260 2918.000000
3647.574951 2288.000000
3648.608398 3021.000000
3649.641113 3104.000000
3650.673584 3187.000000
3651.705811 3134.000000
3652.737305 2455.000000
3653.768555 1776.000000
3654.799316 2354.000000
3655.829590 1278.000000
3656.859619 980.000000
3657.889160 3880.000000
3658.918213 1357.000000
3659.946777 3098.000000
3660.975098 3063.000000
3662.002930 3286.000000
3663.030273 2451.000000
3664.057129 2342.000000
3665.083740 2018.000000
3666.109863 1694.000000
3667.135498 1208.000000
3668.160889 2820.000000
3669.185791 3234.000000
3670.210205 1448.000000
3671.234131 2761.000000
3672.257812 2221.000000
3673.281006 2375.000000
3674.303711 2517.000000
3675.325928 1127.000000
3676.347900 1271.000000
3677.369385 1415.000000
3678.390381 1609.000000
3679.411133 1437.000000
3680.431152 2764.000000
3681.451172 2325.000000
3682.470459 2058.000000
3683.489502 2141.000000
3684.507812 2225.000000
3685.526123 2309.000000
3686.543701 2701.000000
3687.561035 3094.000000
3688.577881 2240.000000
3689.594238 2988.000000
3690.610352 2346.000000
3691.625732 2935.000000
3692.640869 3524.000000
3693.655762 3358.000000
3694.670166 2736.000000
3695.683838 1903.000000
3696.697510 2492.000000
3697.710449 3387.000000
3698.723145 2239.000000
3699.735352 2014.000000
3700.747070 1789.000000
3701.758545 1760.000000
3702.769531 1900.000000
3703.780029 2040.000000
3704.790283 2072.000000
3705.799805 1308.000000
3706.809082 895.000000
3707.818115 1349.000000
3708.826416 2134.000000
3709.834473 2121.000000
3710.842285 1322.000000
3711.849365 2881.000000
3712.856201 2792.000000
3713.862549 2704.000000
3714.868408 2971.000000
3715.874023 2769.000000
3716.879150 2568.000000
3717.883789 2272.000000
3718.887939 2740.000000
3719.891846 2299.000000
3720.895264 1781.000000
3721.898438 2026.000000
3722.900879 2271.000000
3723.903076 1631.000000
3724.905029 991.000000
3725.906250 1112.000000
3726.907227 1377.000000
3727.907715 1646.000000
3728.907715 1916.000000
3729.907471 1482.000000
3730.906738 2824.000000
3731.905518 1946.000000
3732.904053 2613.000000
3733.902100 1363.000000
3734.899658 1447.000000
3735.896973 1253.000000
3736.893555 1709.000000
3737.889893 2477.000000
3738.885986 2324.000000
3739.881348 1363.000000
3740.876465 1390.000000
3741.871338 879.000000
3742.865479 1820.000000
3743.859375 1968.000000
3744.852783 2116.000000
3745.845947 2206.000000
3746.838623 733.000000
3747.830811 2638.000000
3748.822510 2918.000000
3749.813965 3199.000000
3750.804932 2423.000000
3751.795410 1648.000000
3752.785400 2243.000000
3753.775146 1486.000000
3754.764648 1966.000000
3755.753418 1672.000000
3756.741943 2029.000000
3757.729980 2462.000000
3758.717529 2248.000000
3759.704834 2918.000000
3760.691650 2275.000000
3761.677979 1507.000000
3762.664062 1301.000000
3763.649658 2178.000000
3764.634766 1957.000000
3765.619629 1166.000000
3766.604004 1769.000000
3767.587891 2372.000000
3768.571289 2761.000000
3769.554443 1158.000000
3770.537109 2022.000000
3771.519287 395.000000
3772.501221 856.000000
3773.482666 1318.000000
3774.463867 898.000000
3775.444336 2258.000000
3776.424561 3174.000000
3777.404297 2613.000000
3778.383789 1130.000000
3779.362793 3543.000000
3780.341309 3437.000000
3781.319580 1670.000000
3782.297363 2618.000000
3783.274658 2172.000000
3784.251465 2251.000000
3785.228027 1796.000000
3786.204102 1521.000000
3787.179688 1151.000000
3788.155029 1298.000000
3789.129883 1307.000000
3790.104492 1895.000000
3791.078369 2605.000000
3792.052002 1999.000000
3793.025391 734.000000
3793.998047 808.000000
3794.970459 674.000000
3795.942627 2199.000000
3796.914062 1726.000000
3797.885254 1409.000000
3798.855957 1093.000000
3799.826416 1537.000000
3800.796387 -45.000000
3801.765869 -10.000000
3802.735107 24.000000
3803.703857 1156.000000
3804.672119 1683.000000
3805.639893 3059.000000
3806.607422 3211.000000
3807.574463 3156.000000
3808.541260 1918.000000
3809.507568 1081.000000
3810.473389 1773.000000
3811.438721 1246.000000
3812.403809 1757.000000
3813.368408 1441.000000
3814.332520 2013.000000
3815.296387 1487.000000
3816.259766 1313.000000
3817.222900 853.000000
3818.185547 1055.000000
3819.147705 1258.000000
3820.109375 1055.000000
3821.070801 2280.000000
3822.031738 1333.000000
3822.992188 2239.000000
3823.952393 896.000000
3824.912109 2524.000000
3825.871338 990.000000
3826.830322 1435.000000
3827.788818 247.000000
3828.747070 1078.000000
3829.704590 598.000000
3830.661865 2538.000000
3831.618896 2778.000000
3832.575439 3018.000000
3833.531494 2764.000000
3834.487061 2973.000000
3835.442383 1270.000000
3836.397217 1591.000000
3837.351562 1910.000000
3838.305664 2230.000000
3839.259277 2036.000000
3840.212646 1625.000000
3841.165283 1215.000000
3842.117676 1311.000000
3843.069824 2814.000000
3844.021484 2755.000000
3844.972656 1443.000000
3845.923340 1679.000000
3846.873779 892.000000
3847.823730 1610.000000
3848.773438 2987.000000
3849.722412 3185.000000
3850.671387 1974.000000
3851.619629 763.000000
3852.567627 1372.000000
3853.515137 1443.000000
3854.462402 2325.000000
3855.409180 1816.000000
3856.355469 1529.000000
3857.301270 1698.000000
3858.246826 1868.000000
3859.192139 895.000000
3860.136719 1963.000000
3861.081055 1783.000000
3862.024902 1603.000000
3862.968506 1874.000000
3863.911621 2146.000000
3864.854248 2197.000000
3865.796631 1632.000000
3866.738525 801.000000
3867.679932 943.000000
3868.621094 1266.000000
3869.561768 1589.000000
3870.502197 1206.000000
3871.441895 972.000000
3872.381348 739.000000
3873.320557 403.000000
3874.259277 1568.000000
3875.197510 1491.000000
3876.135254 1415.000000
3877.072754 1740.000000
3878.010010 1101.000000
3878.946533 -497.000000
3879.882812 145.000000
3880.818604 787.000000
3881.754150 984.000000
3882.689209 1328.000000
3883.623779 1340.000000
3884.558105 1352.000000
3885.491943 1145.000000
3886.425293 938.000000
3887.358398 957.000000
3888.291016 899.000000
3889.223389 1657.000000
3890.155273 1877.000000
3891.086670 2098.000000
3892.017578 1691.000000
3892.948242 2028.000000
3893.878662 1437.000000
3894.808350 1771.000000
3895.737793 2802.000000
3896.666992 2848.000000
3897.595459 628.000000
3898.523682 1148.000000
3899.451660 2054.000000
3900.379150 1546.000000
3901.306152 2619.000000
3902.232666 2336.000000
3903.158936 1945.000000
3904.084717 2099.000000
3905.010254 2253.000000
3905.935303 1315.000000
3906.859863 2375.000000
3907.784180 391.000000
3908.708008 405.000000
3909.631348 464.000000
3910.554443 727.000000
3911.477051 991.000000
3912.399414 768.000000
3913.321289 1252.000000
3914.242676 1736.000000
3915.163574 1472.000000
3916.084229 1106.000000
3917.004639 740.000000
3917.924561 962.000000
3918.843994 -479.000000
3919.762939 1264.000000
3920.681641 3456.000000
3921.599854 2770.000000
3922.517822 1504.000000
3923.435303 1186.000000
3924.352295 1378.000000
3925.268799 766.000000
3926.185059 859.000000
3927.101074 2290.000000
3928.016602 2071.000000
3928.931641 1616.000000
3929.846191 643.000000
3930.760498 130.000000
3931.674316 163.000000
3932.587891 1195.000000
3933.500977 738.000000
3934.413818 963.000000
3935.325928 1291.000000
3936.237793 1226.000000
3937.149414 1162.000000
3938.060547 928.000000
3938.971191 694.000000
3939.881592 1121.000000
3940.791504 2220.000000
3941.700928 2477.000000
3942.610107 2735.000000
3943.518799 2317.000000
3944.427246 1104.000000
3945.334961 -108.000000
3946.242676 1308.000000
3947.149658 1567.000000
3948.056396 1464.000000
3948.962891 1337.000000
3949.868896 789.000000
3950.774414 947.000000
3951.679443 1042.000000
3952.584229 1099.000000
3953.488770 1157.000000
3954.392578 1479.000000
3955.296143 912.000000
3956.199463 99.000000
3957.102295 262.000000
3958.004639 1110.000000
3958.906738 720.000000
3959.808350 796.000000
3960.709473 1523.000000
3961.610352 726.000000
3962.510742 940.000000
3963.410645 1154.000000
3964.310303 874.000000
3965.209717 903.000000
3966.108398 932.000000
3967.006836 -190.000000
3967.905029 2705.000000
3968.802734 2603.000000
3969.699951 453.000000
3970.596924 906.000000
3971.493408 591.000000
3972.389404 276.000000
3973.285156 -253.000000
3974.180420 -783.000000
3975.075195 -435.000000
3975.969727 -265.000000
3976.864014 -95.000000
3977.757812 -234.000000
3978.651123 62.000000
3979.543945 359.000000
3980.436523 270.000000
3981.328613 182.000000
3982.220459 101.000000
3983.111816 1429.000000
3984.002930 1194.000000
3984.893311 744.000000
3985.783691 294.000000
3986.673340 642.000000
3987.562744 1106.000000
3988.451904 1022.000000
3989.340576 2025.000000
3990.228760 1574.000000
3991.116699 1914.000000
3992.004150 1580.000000
3992.891113 1247.000000
3993.777832 1661.000000
3994.664062 1769.000000
3995.550049 1298.000000
3996.435547 -116.000000
3997.320557 -101.000000
3998.205322 920.000000
3999.089600 541.000000
3999.973633 -244.000000
4000.857178 611.000000
4001.740234 832.000000
4002.623047 1053.000000
4003.505371 735.000000
4004.387451 319.000000
4005.269043 756.000000
4006.150146 1118.000000
4007.031006 256.000000
4007.911377 1095.000000
4008.791504 709.000000
4009.671143 858.000000
4010.550293 913.000000
4011.429199 921.000000
4012.307617 929.000000
4013.185791 1291.000000
4014.063477 1153.000000
4014.940674 1442.000000
4015.817627 1448.000000
4016.694092 585.000000
4017.570312 834.000000
4018.446045 208.000000
4019.321533 158.000000
4020.196533 109.000000
4021.071045 827.000000
4021.945068 913.000000
4022.819092 616.000000
4023.692383 319.000000
4024.565430 737.000000
4025.437988 1156.000000
4026.310303 1041.000000
4027.182129 230.000000
4028.053711 378.000000
4028.924805 526.000000
4029.795410 697.000000
4030.665771 868.000000
4031.535645 680.000000
4032.405273 492.000000
4033.274414 628.000000
4034.143066 1695.000000
4035.011475 1388.000000
4035.879395 780.000000
4036.747070 493.000000
4037.614258 302.000000
4038.480957 332.000000
4039.347412 105.000000
4040.213379 269.000000
4041.079102 434.000000
4041.944336 545.000000
4042.809326 494.000000
