300.00000	42.67232
302.00000	37.43676
304.00000	41.02174
306.00000	42.29905
308.00000	45.27772
310.00000	42.10836
312.00000	27.99610
314.00000	27.60690
316.00000	42.41134
318.00000	42.50636
320.00000	38.49733
322.00000	37.33311
324.00000	35.12767
326.00000	29.16256
328.00000	28.81430
330.00000	38.46887
332.00000	44.18903
334.00000	36.87437
336.00000	29.34544
338.00000	34.45452
340.00000	52.66463
342.00000	64.48673
344.00000	63.02963
346.00000	87.24374
348.00000	110.66703
350.00000	131.87442
352.00000	167.01466
354.00000	198.67499
356.00000	201.72163
358.00000	182.16522
360.00000	147.63734
362.00000	101.94309
364.00000	79.87405
366.00000	76.13869
368.00000	77.66625
370.00000	77.48898
372.00000	68.30361
374.00000	59.75853
376.00000	50.75444
378.00000	46.41718
380.00000	56.03185
382.00000	46.68832
384.00000	46.30289
386.00000	56.82611
388.00000	55.27596
390.00000	74.42269
392.00000	92.73616
394.00000	108.08607
396.00000	126.62981
398.00000	129.51500
400.00000	120.54044
402.00000	110.05532
404.00000	98.97279
406.00000	78.40343
408.00000	48.75556
410.00000	42.95535
412.00000	54.16558
414.00000	55.79684
416.00000	58.13549
418.00000	55.03181
420.00000	43.95856
422.00000	29.48981
424.00000	27.66053
426.00000	66.58323
428.00000	73.93652
430.00000	62.09195
432.00000	94.99696
434.00000	105.10218
436.00000	107.85048
438.00000	136.19180
440.00000	180.61185
442.00000	204.91914
444.00000	242.73149
446.00000	301.19891
448.00000	376.62469
450.00000	474.07483
452.00000	597.10242
454.00000	781.97284
456.00000	1047.93835
458.00000	1399.76648
460.00000	1832.77441
462.00000	2239.34644
464.00000	2468.78418
466.00000	2439.32422
468.00000	2185.77783
470.00000	1794.90393
472.00000	1374.91895
474.00000	1008.59094
476.00000	737.11188
478.00000	565.05737
480.00000	444.69135
482.00000	349.37857
484.00000	282.26767
486.00000	245.99841
488.00000	218.44513
490.00000	194.06227
492.00000	176.37936
494.00000	161.02875
496.00000	134.90385
498.00000	112.36204
500.00000	108.93094
502.00000	110.81764
504.00000	87.45428
506.00000	79.21024
508.00000	75.37701
510.00000	67.92641
512.00000	73.03008
514.00000	47.22468
516.00000	34.14774
518.00000	42.64291
520.00000	45.16672
522.00000	59.49483
524.00000	43.80278
526.00000	31.66395
528.00000	44.99393
530.00000	32.17299
532.00000	29.94702
534.00000	28.58627
536.00000	21.99965
538.00000	26.93348
540.00000	30.29693
542.00000	21.96451
544.00000	16.75985
546.00000	22.28298
548.00000	18.48368
550.00000	24.88821
552.00000	39.89629
554.00000	46.67867
556.00000	39.52602
558.00000	33.33991
560.00000	34.25702
562.00000	41.64600
564.00000	48.35008
566.00000	42.37434
568.00000	30.67305
570.00000	30.66944
572.00000	39.37162
574.00000	36.61075
576.00000	42.01095
578.00000	40.07543
580.00000	35.58134
582.00000	46.27941
584.00000	39.39864
586.00000	25.84308
588.00000	25.80620
590.00000	38.78664
592.00000	47.80473
594.00000	59.62869
596.00000	68.20946
598.00000	62.61931
600.00000	46.78274
602.00000	43.18949
604.00000	52.33509
606.00000	66.43269
608.00000	72.05258
610.00000	58.80641
612.00000	71.46892
614.00000	66.75850
616.00000	32.48014
618.00000	37.78584
620.00000	35.14309
622.00000	54.83261
624.00000	73.51417
626.00000	40.20355
628.00000	28.19141
630.00000	21.58870
632.00000	27.28047
634.00000	57.26832
636.00000	71.28845
638.00000	43.46438
640.00000	30.48751
642.00000	47.56031
644.00000	50.20338
646.00000	61.56747
648.00000	51.33631
650.00000	39.23216
652.00000	47.20947
654.00000	23.64106
656.00000	24.47386
658.00000	25.41658
660.00000	11.45730
662.00000	30.63551
664.00000	40.13499
666.00000	31.82227
668.00000	23.78717
670.00000	26.26860
672.00000	30.43887
674.00000	41.72144
676.00000	51.80330
678.00000	54.19912
680.00000	58.03990
682.00000	53.75063
684.00000	48.24173
686.00000	49.01272
688.00000	50.63596
690.00000	48.87906
692.00000	70.98143
694.00000	90.39560
696.00000	69.61312
698.00000	42.80511
700.00000	47.21557
702.00000	53.65625
704.00000	46.36113
706.00000	52.82890
708.00000	48.54403
710.00000	38.45495
712.00000	43.40920
714.00000	63.66769
716.00000	67.12875
718.00000	53.15904
720.00000	39.37050
722.00000	42.84911
724.00000	59.06344
726.00000	48.31585
728.00000	32.19887
730.00000	35.45827
732.00000	46.99759
734.00000	48.66288
736.00000	35.31840
738.00000	31.97803
740.00000	50.55340
742.00000	60.19882
744.00000	68.37258
746.00000	66.46198
748.00000	54.37878
750.00000	55.33395
752.00000	73.06067
754.00000	72.64061
756.00000	53.94675
758.00000	47.39419
760.00000	57.18284
762.00000	77.45803
764.00000	65.47945
766.00000	30.48341
768.00000	43.99747
770.00000	57.19387
772.00000	59.78165
774.00000	54.41752
776.00000	46.60064
778.00000	69.16103
780.00000	69.45432
782.00000	56.63532
784.00000	68.55591
786.00000	80.96896
788.00000	80.56060
790.00000	88.10578
792.00000	97.10930
794.00000	79.42528
796.00000	72.68935
798.00000	60.84136
800.00000	55.39465
802.00000	65.96519
804.00000	42.29910
806.00000	42.85674
808.00000	47.47328
810.00000	34.22790
812.00000	44.79382
814.00000	43.54736
816.00000	35.90853
818.00000	36.44904
820.00000	42.30452
822.00000	48.37221
824.00000	46.09566
826.00000	42.45290
828.00000	40.12650
830.00000	30.59232
832.00000	46.20786
834.00000	52.51126
836.00000	40.54272
838.00000	46.20837
840.00000	39.47296
842.00000	35.74815
844.00000	43.56167
846.00000	50.61197
848.00000	52.63145
850.00000	55.61728
852.00000	50.17306
854.00000	37.12762
856.00000	38.66795
858.00000	53.20158
860.00000	39.77280
862.00000	21.14757
864.00000	39.76386
866.00000	40.74600
868.00000	50.59548
870.00000	48.12536
872.00000	20.79652
874.00000	25.38724
876.00000	35.71136
878.00000	36.71916
880.00000	33.83790
882.00000	37.08501
884.00000	51.54898
886.00000	61.43496
888.00000	58.02448
890.00000	47.80555
892.00000	43.94423
894.00000	57.77903
896.00000	52.64561
898.00000	32.01893
900.00000	48.63535
902.00000	59.08466
904.00000	58.81049
906.00000	48.86965
908.00000	31.40407
910.00000	34.28395
912.00000	35.33451
914.00000	34.68163
916.00000	34.47385
918.00000	20.35886
920.00000	31.24027
922.00000	45.71090
924.00000	51.58441
926.00000	63.09029
928.00000	54.52801
930.00000	52.94625
932.00000	58.62853
934.00000	52.77265
936.00000	46.48021
938.00000	46.10001
940.00000	45.25702
942.00000	42.05639
944.00000	41.69775
946.00000	36.42468
948.00000	38.01128
950.00000	52.13051
952.00000	65.27888
954.00000	62.36832
956.00000	65.30853
958.00000	62.92441
960.00000	49.66024
962.00000	49.42892
964.00000	34.56350
966.00000	46.53447
968.00000	68.66039
970.00000	48.00465
972.00000	54.93935
974.00000	60.11181
976.00000	48.22745
978.00000	34.84203
980.00000	24.23237
982.00000	38.26680
984.00000	51.38990
986.00000	46.19495
988.00000	45.12292
990.00000	55.58453
992.00000	60.49409
994.00000	55.25908
996.00000	54.04715
998.00000	62.64114
1000.00000	53.90362
1002.00000	55.92841
1004.00000	71.57980
1006.00000	47.22155
1008.00000	28.37616
1010.00000	28.18522
1012.00000	34.59688
1014.00000	33.70977
1016.00000	19.32796
1018.00000	34.94522
1020.00000	56.98583
1022.00000	51.40684
1024.00000	52.86891
1026.00000	55.84396
1028.00000	57.30545
1030.00000	55.54225
1032.00000	49.98071
1034.00000	55.52812
1036.00000	61.32913
1038.00000	64.46780
1040.00000	62.50064
1042.00000	39.13750
1044.00000	33.84868
1046.00000	42.24977
1048.00000	45.62178
1050.00000	49.19535
1052.00000	43.49406
1054.00000	43.83142
1056.00000	54.30891
1058.00000	62.62262
1060.00000	72.90211
1062.00000	96.49197
1064.00000	100.03147
1066.00000	83.38255
1068.00000	107.06207
1070.00000	102.81454
1072.00000	78.73936
1074.00000	67.83635
1076.00000	66.94180
1078.00000	69.75756
1080.00000	74.23726
1082.00000	87.30972
1084.00000	95.83263
1086.00000	72.08666
1088.00000	99.82308
1090.00000	125.54375
1092.00000	116.56802
1094.00000	142.94331
1096.00000	136.37566
1098.00000	116.69905
1100.00000	108.61586
1102.00000	94.50681
1104.00000	65.34299
1106.00000	45.14175
1108.00000	45.74770
1110.00000	58.36537
1112.00000	67.34257
1114.00000	62.64869
1116.00000	55.72836
1118.00000	49.26012
1120.00000	41.32708
1122.00000	57.18857
1124.00000	66.88338
1126.00000	74.74612
1128.00000	89.02118
1130.00000	69.71953
1132.00000	55.21796
1134.00000	56.30816
1136.00000	60.74393
1138.00000	62.68867
1140.00000	58.10205
1142.00000	64.00204
1144.00000	66.36583
1146.00000	58.34290
1148.00000	93.37656
1150.00000	113.06177
1152.00000	102.49457
1154.00000	104.41060
1156.00000	144.55591
1158.00000	179.60469
1160.00000	195.75519
1162.00000	197.65414
1164.00000	184.26826
1166.00000	151.93047
1168.00000	113.55527
1170.00000	92.83743
1172.00000	97.12623
1174.00000	102.93449
1176.00000	96.39520
1178.00000	79.06948
1180.00000	54.09272
1182.00000	41.08108
1184.00000	93.48399
1186.00000	99.53197
1188.00000	68.54179
1190.00000	88.09196
1192.00000	90.52460
1194.00000	90.04386
1196.00000	82.04091
1198.00000	63.77973
1200.00000	64.00581
1202.00000	65.29445
1204.00000	41.53186
1206.00000	21.55246
1208.00000	49.23262
1210.00000	77.74388
1212.00000	57.72295
1214.00000	47.49735
1216.00000	84.32053
1218.00000	79.09637
1220.00000	60.48796
1222.00000	70.68001
1224.00000	87.57913
1226.00000	72.22487
1228.00000	86.28207
1230.00000	74.92852
1232.00000	59.97338
1234.00000	84.04700
1236.00000	58.36898
1238.00000	41.29497
1240.00000	38.98212
1242.00000	43.14107
1244.00000	71.68597
1246.00000	51.00195
1248.00000	52.74260
1250.00000	84.31621
1252.00000	70.51010
1254.00000	53.00689
1256.00000	63.29912
1258.00000	84.70749
1260.00000	80.12041
1262.00000	48.09623
1264.00000	55.14318
1266.00000	70.80933
1268.00000	54.50602
1270.00000	32.22539
1272.00000	43.94339
1274.00000	63.07666
1276.00000	75.97767
1278.00000	89.14647
1280.00000	95.26696
1282.00000	115.69683
1284.00000	100.42126
1286.00000	66.35609
1288.00000	103.99232
1290.00000	101.04796
1292.00000	84.45498
1294.00000	92.09405
1296.00000	100.53126
1298.00000	97.34649
1300.00000	80.39421
1302.00000	91.96169
1304.00000	122.20943
1306.00000	101.92852
1308.00000	145.28912
1310.00000	132.75464
1312.00000	76.26191
1314.00000	129.15630
1316.00000	107.61650
1318.00000	84.08395
1320.00000	101.32400
1322.00000	98.69748
1324.00000	61.32730
1326.00000	52.77034
1328.00000	62.51315
1330.00000	51.25039
1332.00000	31.13775
1334.00000	50.12375
1336.00000	69.83704
1338.00000	67.80805
1340.00000	69.49419
1342.00000	83.37915
1344.00000	80.36359
1346.00000	77.93199
1348.00000	77.07405
1350.00000	39.55829
1352.00000	47.45177
1354.00000	53.62271
1356.00000	34.66282
1358.00000	39.82602
1360.00000	38.69811
1362.00000	23.30360
1364.00000	36.38047
1366.00000	79.15511
1368.00000	68.01660
1370.00000	51.94696
1372.00000	69.80563
1374.00000	92.43329
1376.00000	74.92225
1378.00000	62.04815
1380.00000	63.65432
1382.00000	63.83472
1384.00000	53.23263
1386.00000	41.22698
1388.00000	31.46061
1390.00000	53.35838
1392.00000	86.53822
1394.00000	56.89683
1396.00000	25.38631
1398.00000	54.42561
1400.00000	94.77682
1402.00000	71.00627
1404.00000	63.11850
1406.00000	73.54207
1408.00000	62.74251
1410.00000	36.40112
1412.00000	51.30431
1414.00000	54.25973
1416.00000	41.34542
1418.00000	31.05151
1420.00000	28.92587
1422.00000	56.43266
1424.00000	47.21686
1426.00000	30.87333
1428.00000	76.31977
1430.00000	108.78401
1432.00000	69.12404
1434.00000	56.31446
1436.00000	99.84542
1438.00000	73.52375
1440.00000	55.70549
1442.00000	52.84885
1444.00000	48.57376
1446.00000	45.94313
1448.00000	33.79474
1450.00000	56.18093
1452.00000	110.55876
1454.00000	126.13296
1456.00000	70.78687
1458.00000	121.53944
1460.00000	129.18483
1462.00000	62.00401
1464.00000	109.00928
1466.00000	109.26102
1468.00000	62.77242
1470.00000	49.14960
1472.00000	75.46203
1474.00000	61.94226
1476.00000	65.28342
1478.00000	52.60335
1480.00000	37.27573
1482.00000	104.33715
1484.00000	87.23766
1486.00000	58.54581
1488.00000	84.26779
1490.00000	100.78023
1492.00000	75.46748
1494.00000	71.26414
1496.00000	61.10468
1498.00000	22.30505
1500.00000	35.36380
1502.00000	61.40343
1504.00000	52.88186
1506.00000	34.64443
1508.00000	59.91794
1510.00000	86.94874
1512.00000	98.11578
1514.00000	102.65467
1516.00000	98.77206
1518.00000	65.58688
1520.00000	49.80796
1522.00000	56.96225
1524.00000	59.36711
1526.00000	46.59243
1528.00000	43.62702
1530.00000	57.88508
1532.00000	70.71631
1534.00000	67.37387
1536.00000	67.68983
1538.00000	75.31792
1540.00000	80.53090
1542.00000	78.15932
1544.00000	74.26621
1546.00000	66.20361
1548.00000	53.15370
1550.00000	41.15234
1552.00000	37.66951
1554.00000	39.81561
1556.00000	37.87417
1558.00000	33.83340
1560.00000	34.58981
1562.00000	44.10238
1564.00000	85.87216
1566.00000	96.07850
1568.00000	60.99403
1570.00000	66.08986
1572.00000	101.48444
1574.00000	92.58022
1576.00000	46.23075
1578.00000	35.27314
1580.00000	66.56364
1582.00000	90.79948
1584.00000	77.87913
1586.00000	71.06495
1588.00000	129.93181
1590.00000	151.82442
1592.00000	170.67287
1594.00000	209.99506
1596.00000	209.29137
1598.00000	161.86394
1600.00000	149.73022
1602.00000	175.38304
1604.00000	177.17137
1606.00000	144.67764
1608.00000	129.45352
1610.00000	110.77720
1612.00000	87.59943
1614.00000	111.86870
1616.00000	146.14348
1618.00000	105.56819
1620.00000	96.38304
1622.00000	182.59784
1624.00000	109.38660
1626.00000	81.77859
1628.00000	109.78423
1630.00000	91.70429
1632.00000	70.10636
1634.00000	56.02565
1636.00000	67.83690
1638.00000	70.70108
1640.00000	49.56796
1642.00000	118.09900
1644.00000	129.39122
1646.00000	79.20999
1648.00000	74.63457
1650.00000	99.07252
1652.00000	90.05888
1654.00000	56.56152
1656.00000	44.59661
1658.00000	64.62917
1660.00000	68.43480
1662.00000	76.10502
1664.00000	82.72404
1666.00000	71.11630
1668.00000	87.98463
1670.00000	153.23459
1672.00000	127.56807
1674.00000	54.31115
1676.00000	152.84190
1678.00000	110.36982
1680.00000	54.48965
1682.00000	85.54546
1684.00000	83.07564
1686.00000	63.60741
1688.00000	103.58014
1690.00000	148.37955
1692.00000	125.05108
1694.00000	105.66467
1696.00000	168.52126
1698.00000	153.89346
1700.00000	80.51575
1702.00000	137.93703
1704.00000	118.52185
1706.00000	54.87231
1708.00000	33.66027
1710.00000	56.02852
1712.00000	68.44805
1714.00000	41.00140
1716.00000	74.10321
1718.00000	150.72728
1720.00000	118.67913
1722.00000	133.97203
1724.00000	143.89642
1726.00000	104.30196
1728.00000	83.38792
1730.00000	102.08091
1732.00000	81.23517
1734.00000	68.12167
1736.00000	117.14786
1738.00000	145.44955
1740.00000	142.21873
1742.00000	169.76352
1744.00000	184.07307
1746.00000	121.68264
1748.00000	167.20236
1750.00000	164.55891
1752.00000	122.27112
1754.00000	144.89107
1756.00000	116.84726
1758.00000	93.77489
1760.00000	51.62828
1762.00000	45.12751
1764.00000	167.15152
1766.00000	135.13072
1768.00000	150.05946
1770.00000	192.69928
1772.00000	110.31992
1774.00000	203.46571
1776.00000	153.66806
1778.00000	34.93384
1780.00000	67.83678
1782.00000	104.12894
1784.00000	80.08267
1786.00000	79.18814
1788.00000	107.35044
1790.00000	92.75553
1792.00000	110.06066
1794.00000	126.57687
1796.00000	94.34039
1798.00000	69.38159
1800.00000	145.41534
1802.00000	90.48831
1804.00000	46.92954
1806.00000	102.31236
1808.00000	64.29060
1810.00000	45.15156
1812.00000	126.97192
1814.00000	138.17924
1816.00000	43.36987
1818.00000	236.69501
1820.00000	197.78220
1822.00000	85.30168
1824.00000	155.72745
1826.00000	76.13662
1828.00000	65.70886
1830.00000	122.79333
1832.00000	114.06036
1834.00000	65.83784
1836.00000	180.26360
1838.00000	166.66914
1840.00000	132.50275
1842.00000	247.37671
1844.00000	192.24579
1846.00000	124.19344
1848.00000	105.51981
1850.00000	92.68111
1852.00000	78.45782
1854.00000	83.87498
1856.00000	87.54323
1858.00000	88.21212
1860.00000	112.78907
1862.00000	161.04221
1864.00000	172.65413
1866.00000	161.41582
1868.00000	145.72571
1870.00000	103.87332
1872.00000	106.38216
1874.00000	139.66110
1876.00000	120.78157
1878.00000	82.54729
1880.00000	223.84811
1882.00000	126.80808
1884.00000	88.82601
1886.00000	311.02393
1888.00000	138.15132
1890.00000	197.60918
1892.00000	242.93727
1894.00000	95.47490
1896.00000	137.14885
1898.00000	115.31901
1900.00000	79.23061
1902.00000	121.75657
1904.00000	188.21397
1906.00000	188.35580
1908.00000	226.02802
1910.00000	230.73123
1912.00000	129.83034
1914.00000	45.32152
1916.00000	79.79416
1918.00000	72.53622
1920.00000	77.39703
1922.00000	184.83348
1924.00000	49.05044
1926.00000	118.63872
1928.00000	249.48247
1930.00000	173.20381
1932.00000	228.79810
1934.00000	218.74286
1936.00000	148.17094
1938.00000	156.78090
1940.00000	201.08282
1942.00000	33.76709
1944.00000	97.19741
1946.00000	203.66434
1948.00000	72.07037
1950.00000	271.91690
1952.00000	220.34937
1954.00000	137.73007
1956.00000	234.58432
1958.00000	135.54971
1960.00000	252.37082
1962.00000	210.16057
1964.00000	112.00294
1966.00000	318.09088
1968.00000	210.09967
1970.00000	208.11771
1972.00000	252.57393
1974.00000	165.71927
1976.00000	271.66434
1978.00000	265.80194
1980.00000	149.30495
1982.00000	92.47594
1984.00000	114.54486
1986.00000	85.51173
1988.00000	124.87497
1990.00000	165.05902
1992.00000	127.10049
1994.00000	192.43077
1996.00000	135.45891
1998.00000	88.05441
2000.00000	28.85350
2002.00000	38.39936
2004.00000	24.96287
2006.00000	27.21624
2008.00000	48.82018
2010.00000	47.55495
2012.00000	42.27061
2014.00000	53.37530
2016.00000	61.01870
2018.00000	46.91109
2020.00000	42.59283
2022.00000	40.22094
2024.00000	38.18246
2026.00000	54.29559
2028.00000	87.50774
2030.00000	64.39604
2032.00000	47.69223
2034.00000	77.44258
2036.00000	93.77126
2038.00000	59.43726
2040.00000	49.52033
2042.00000	65.20760
2044.00000	61.83735
2046.00000	64.38121
2048.00000	64.60796
2050.00000	57.94459
2052.00000	52.78472
2054.00000	52.92638
2056.00000	39.27251
2058.00000	40.41614
2060.00000	54.94891
2062.00000	48.90986
2064.00000	37.32713
2066.00000	39.69824
2068.00000	53.73892
2070.00000	61.96828
2072.00000	52.18320
2074.00000	30.71347
2076.00000	43.42833
2078.00000	85.32861
2080.00000	85.39173
2082.00000	49.97705
2084.00000	55.11274
2086.00000	77.77462
2088.00000	47.85854
2090.00000	32.33728
2092.00000	34.81277
2094.00000	44.43843
2096.00000	51.40813
2098.00000	40.39868
2100.00000	23.72713
2102.00000	30.50111
2104.00000	50.92922
2106.00000	47.67070
2108.00000	51.74983
2110.00000	83.15237
2112.00000	102.74220
2114.00000	80.27383
2116.00000	75.50946
2118.00000	62.68238
2120.00000	41.09289
2122.00000	39.23238
2124.00000	54.22351
2126.00000	36.16171
2128.00000	29.16285
2130.00000	50.20568
2132.00000	46.10535
2134.00000	31.77775
2136.00000	42.06857
2138.00000	54.84627
2140.00000	39.12127
2142.00000	38.47706
2144.00000	50.72420
2146.00000	52.40442
2148.00000	41.62966
2150.00000	40.12460
2152.00000	33.14536
2154.00000	43.57173
2156.00000	62.58850
2158.00000	49.14959
2160.00000	29.85955
2162.00000	20.92074
2164.00000	29.49970
2166.00000	38.83879
2168.00000	17.70273
2170.00000	42.46502
2172.00000	74.80492
2174.00000	63.85987
2176.00000	61.69725
2178.00000	81.74870
2180.00000	64.88885
2182.00000	37.90019
2184.00000	67.59599
2186.00000	54.93476
2188.00000	45.34171
2190.00000	39.74272
2192.00000	13.47050
2194.00000	25.30896
2196.00000	50.91140
2198.00000	92.85340
2200.00000	112.15598
2202.00000	47.12481
2204.00000	36.67453
2206.00000	74.31013
2208.00000	79.40248
2210.00000	49.52277
2212.00000	89.09656
2214.00000	101.75665
2216.00000	71.21381
2218.00000	73.30131
2220.00000	106.78127
2222.00000	67.36499
2224.00000	23.04208
2226.00000	40.49373
2228.00000	57.30296
2230.00000	66.48301
2232.00000	71.42669
2234.00000	62.88731
2236.00000	51.34655
2238.00000	87.65275
2240.00000	99.33400
2242.00000	85.38784
2244.00000	86.37049
2246.00000	77.56109
2248.00000	48.34157
2250.00000	30.05940
2252.00000	56.90380
2254.00000	104.38880
2256.00000	74.04085
2258.00000	31.85894
2260.00000	47.71864
2262.00000	97.94995
2264.00000	115.20921
2266.00000	92.52130
2268.00000	71.68098
2270.00000	70.62728
2272.00000	55.82362
2274.00000	48.55083
2276.00000	85.26906
2278.00000	116.53529
2280.00000	72.91760
2282.00000	68.12821
2284.00000	71.82695
2286.00000	52.25216
2288.00000	48.51777
2290.00000	87.39175
2292.00000	68.47992
2294.00000	36.15020
2296.00000	64.54968
2298.00000	85.59634
2300.00000	33.87977
2302.00000	31.18449
2304.00000	89.33715
2306.00000	86.35299
2308.00000	103.08144
2310.00000	80.40493
2312.00000	40.15161
2314.00000	44.11799
2316.00000	32.09563
2318.00000	77.68642
2320.00000	114.57982
2322.00000	79.73252
2324.00000	59.02082
2326.00000	73.66505
2328.00000	110.45720
2330.00000	116.29350
2332.00000	71.66954
2334.00000	82.62351
2336.00000	98.27202
2338.00000	89.64381
2340.00000	75.37491
2342.00000	45.80551
2344.00000	33.13545
2346.00000	40.58550
2348.00000	58.21143
2350.00000	81.44029
2352.00000	78.57997
2354.00000	61.41241
2356.00000	70.89122
2358.00000	105.10336
2360.00000	82.91445
2362.00000	77.37842
2364.00000	83.82568
2366.00000	60.94412
2368.00000	59.93608
2370.00000	48.43607
2372.00000	18.27363
2374.00000	30.73319
2376.00000	115.37902
2378.00000	100.42020
2380.00000	73.06027
2382.00000	85.30801
2384.00000	79.39301
2386.00000	98.05045
2388.00000	121.30599
2390.00000	108.19913
2392.00000	79.02856
2394.00000	98.14972
2396.00000	68.60894
2398.00000	53.83941
2400.00000	73.50790
2402.00000	44.30843
2404.00000	87.34706
2406.00000	95.22137
2408.00000	56.47378
2410.00000	74.05476
2412.00000	90.79230
2414.00000	68.56987
2416.00000	71.95159
2418.00000	118.48713
2420.00000	98.69916
2422.00000	55.38939
2424.00000	49.55923
2426.00000	58.88489
2428.00000	34.82286
2430.00000	57.87793
2432.00000	72.39841
2434.00000	66.52270
2436.00000	81.18500
2438.00000	84.12772
2440.00000	90.71645
2442.00000	105.35704
2444.00000	109.38174
2446.00000	91.70516
2448.00000	84.53362
2450.00000	104.98489
2452.00000	111.77573
2454.00000	69.20181
2456.00000	61.84929
2458.00000	62.75031
2460.00000	36.96494
2462.00000	21.66870
2464.00000	80.45566
2466.00000	112.68183
2468.00000	90.70753
2470.00000	81.17638
2472.00000	122.21404
2474.00000	110.09685
2476.00000	77.92249
2478.00000	66.18811
2480.00000	51.61292
2482.00000	45.04089
2484.00000	42.13454
2486.00000	36.79818
2488.00000	37.72387
2490.00000	61.24846
2492.00000	83.49082
2494.00000	85.10827
2496.00000	71.93874
2498.00000	65.24166
2500.00000	70.73048
2502.00000	93.56657
2504.00000	111.28713
2506.00000	97.01987
2508.00000	74.93677
2510.00000	44.89100
2512.00000	42.96556
2514.00000	75.41474
2516.00000	68.51557
2518.00000	69.65808
2520.00000	77.17487
2522.00000	89.09579
2524.00000	129.19714
2526.00000	133.03563
2528.00000	147.84383
2530.00000	153.33366
2532.00000	94.50908
2534.00000	77.39741
2536.00000	76.87936
2538.00000	79.98524
2540.00000	93.42995
2542.00000	97.08437
2544.00000	126.51223
2546.00000	131.07323
2548.00000	100.02381
2550.00000	106.15387
2552.00000	124.93204
2554.00000	125.50003
2556.00000	108.16198
2558.00000	90.47851
2560.00000	84.34280
2562.00000	134.67894
2564.00000	150.37294
2566.00000	82.23235
2568.00000	64.54760
2570.00000	79.47000
2572.00000	83.80014
2574.00000	70.73333
2576.00000	82.10920
2578.00000	165.33298
2580.00000	171.26790
2582.00000	122.34579
2584.00000	129.05664
2586.00000	73.64965
2588.00000	20.03329
2590.00000	40.92607
2592.00000	86.75161
2594.00000	55.58448
2596.00000	72.20705
2598.00000	125.24207
2600.00000	135.98724
2602.00000	101.18501
2604.00000	105.01462
2606.00000	133.77747
2608.00000	136.03691
2610.00000	108.00565
2612.00000	114.75439
2614.00000	166.51738
2616.00000	169.31204
2618.00000	106.04990
2620.00000	88.31731
2622.00000	54.15732
2624.00000	49.12225
2626.00000	90.71944
2628.00000	114.22093
2630.00000	123.97290
2632.00000	166.56990
2634.00000	157.88052
2636.00000	70.96867
2638.00000	105.37206
2640.00000	131.09750
2642.00000	99.77579
2644.00000	94.03159
2646.00000	152.08896
2648.00000	129.21976
2650.00000	107.35743
2652.00000	133.17276
2654.00000	131.73552
2656.00000	119.80396
2658.00000	96.89655
2660.00000	90.90770
2662.00000	98.69626
2664.00000	62.34347
2666.00000	98.31960
2668.00000	103.26520
2670.00000	45.89738
2672.00000	74.75710
2674.00000	34.68802
2676.00000	27.29951
2678.00000	91.66596
2680.00000	114.00997
2682.00000	101.18150
2684.00000	127.10480
2686.00000	132.60950
2688.00000	83.29725
2690.00000	106.70499
2692.00000	110.46346
2694.00000	55.67747
2696.00000	23.59225
2698.00000	73.96335
2700.00000	54.74873
2702.00000	59.83712
2704.00000	106.76830
2706.00000	112.56040
2708.00000	146.85458
2710.00000	163.05473
2712.00000	135.87163
2714.00000	94.55050
2716.00000	82.10558
2718.00000	131.05981
2720.00000	127.99747
2722.00000	56.08192
2724.00000	55.68443
2726.00000	121.93286
2728.00000	144.41707
2730.00000	137.53001
2732.00000	163.73613
2734.00000	130.36519
2736.00000	79.77024
2738.00000	116.84001
2740.00000	171.75180
2742.00000	53.40036
2744.00000	46.98170
2746.00000	111.54203
2748.00000	116.42670
2750.00000	114.53014
2752.00000	182.84314
2754.00000	128.93584
2756.00000	62.55835
2758.00000	165.37666
2760.00000	167.32907
2762.00000	114.84193
2764.00000	101.68144
2766.00000	107.93255
2768.00000	62.91138
2770.00000	59.17749
2772.00000	84.44080
2774.00000	88.38110
2776.00000	84.68003
2778.00000	129.58733
2780.00000	131.08223
2782.00000	143.46608
2784.00000	214.12663
2786.00000	155.01350
2788.00000	94.97712
2790.00000	141.24635
2792.00000	181.57195
2794.00000	69.50449
2796.00000	99.11721
2798.00000	123.14650
2800.00000	67.33510
2802.00000	110.79745
2804.00000	212.72838
2806.00000	178.74982
2808.00000	155.62938
2810.00000	235.35693
2812.00000	83.72954
2814.00000	53.85947
2816.00000	123.31487
2818.00000	109.64367
2820.00000	102.69576
2822.00000	240.51874
2824.00000	230.00223
2826.00000	124.15945
2828.00000	200.78134
2830.00000	158.62450
2832.00000	182.49753
2834.00000	206.04651
2836.00000	92.10504
2838.00000	66.80659
2840.00000	100.52863
2842.00000	83.44154
2844.00000	71.06621
2846.00000	164.31610
2848.00000	93.46835
2850.00000	148.51540
2852.00000	300.48990
2854.00000	219.59831
2856.00000	101.73242
2858.00000	96.18302
2860.00000	138.95941
2862.00000	137.31522
2864.00000	132.54257
2866.00000	99.64581
2868.00000	50.46632
2870.00000	53.98718
2872.00000	127.97965
2874.00000	119.81895
2876.00000	167.65038
2878.00000	201.20293
2880.00000	96.62839
2882.00000	135.79146
2884.00000	167.33498
2886.00000	123.90842
2888.00000	90.52817
2890.00000	98.78748
2892.00000	67.15312
2894.00000	138.04349
2896.00000	230.95950
2898.00000	121.74148
2900.00000	151.61641
2902.00000	193.35245
2904.00000	122.10580
2906.00000	70.86994
2908.00000	179.29318
2910.00000	129.51567
2912.00000	69.90238
2914.00000	145.77333
2916.00000	107.83227
2918.00000	208.69797
2920.00000	231.87567
2922.00000	126.39553
2924.00000	159.91110
2926.00000	186.03578
2928.00000	131.03859
2930.00000	101.72386
2932.00000	123.52961
2934.00000	27.50886
2936.00000	176.34886
2938.00000	225.50449
2940.00000	77.40385
2942.00000	290.48508
2944.00000	237.47899
2946.00000	76.15188
2948.00000	112.07818
2950.00000	205.26266
2952.00000	125.00309
2954.00000	165.70322
2956.00000	210.46700
2958.00000	96.67779
2960.00000	220.38641
2962.00000	279.69650
2964.00000	266.75363
2966.00000	278.19858
2968.00000	242.02797
2970.00000	282.15274
2972.00000	198.35666
2974.00000	99.13747
2976.00000	210.85277
2978.00000	125.18882
2980.00000	116.28292
2982.00000	288.99603
2984.00000	391.00400
2986.00000	268.52112
2988.00000	266.19165
2990.00000	227.54694
2992.00000	95.62869
2994.00000	176.49138
2996.00000	225.66951
2998.00000	215.20316
3000.00000	147.70332
3002.00000	73.06164
3004.00000	236.20284
3006.00000	323.33780
3008.00000	284.16205
3010.00000	258.34421
3012.00000	207.97293
3014.00000	221.45079
3016.00000	211.76677
3018.00000	118.26005
3020.00000	104.20428
3022.00000	356.92874
3024.00000	323.94473
3026.00000	170.16307
3028.00000	303.33499
3030.00000	72.09698
3032.00000	185.35083
3034.00000	368.71497
3036.00000	179.41682
3038.00000	196.02254
3040.00000	229.53352
3042.00000	191.64149
3044.00000	222.56952
3046.00000	385.71185
3048.00000	398.52139
3050.00000	343.08527
3052.00000	353.02667
3054.00000	332.89560
3056.00000	113.58604
3058.00000	207.00996
3060.00000	332.26285
3062.00000	178.95021
3064.00000	189.18394
3066.00000	299.40567
3068.00000	357.00592
3070.00000	338.47272
3072.00000	271.98465
3074.00000	99.50303
3076.00000	222.36394
3078.00000	320.46869
3080.00000	90.04333
3082.00000	261.81992
3084.00000	185.05971
3086.00000	160.46933
3088.00000	391.52994
3090.00000	209.32457
3092.00000	226.90154
3094.00000	227.03622
3096.00000	97.58768
3098.00000	125.73490
3100.00000	86.93929
3102.00000	253.94618
3104.00000	387.88510
3106.00000	252.56531
3108.00000	363.39914
3110.00000	323.41068
3112.00000	261.74860
3114.00000	301.62433
3116.00000	171.19270
3118.00000	210.79559
3120.00000	112.05592
3122.00000	61.28666
3124.00000	415.08765
3126.00000	332.81226
3128.00000	409.07925
3130.00000	575.31726
3132.00000	387.31915
3134.00000	212.47636
3136.00000	77.03217
3138.00000	185.14369
3140.00000	353.00473
3142.00000	159.12527
3144.00000	294.18079
3146.00000	393.84644
3148.00000	266.20749
3150.00000	247.11047
3152.00000	310.10739
3154.00000	354.87457
3156.00000	248.84229
3158.00000	105.33711
3160.00000	214.88173
3162.00000	113.79282
3164.00000	263.10516
3166.00000	682.62341
3168.00000	534.11035
3170.00000	119.54372
3172.00000	54.02162
3174.00000	333.81497
3176.00000	423.27133
3178.00000	169.49548
3180.00000	396.39243
3182.00000	602.24554
3184.00000	278.25586
3186.00000	317.03360
3188.00000	577.53510
3190.00000	490.94748
3192.00000	251.89221
3194.00000	391.17151
3196.00000	88.42577
3198.00000	149.32298
3200.00000	532.80420
