300.00000	1596.66541
302.00000	1491.93884
304.00000	1296.30420
306.00000	1059.00098
308.00000	824.88861
310.00000	621.59015
312.00000	459.72980
314.00000	348.39725
316.00000	282.78839
318.00000	240.27983
320.00000	201.81267
322.00000	165.95290
324.00000	141.69916
326.00000	133.51840
328.00000	130.23500
330.00000	118.16163
332.00000	113.66344
334.00000	113.64524
336.00000	98.76269
338.00000	139.27927
340.00000	119.94217
342.00000	67.01544
344.00000	98.77726
346.00000	58.29435
348.00000	40.28048
350.00000	57.57106
352.00000	51.38417
354.00000	51.01379
356.00000	46.00743
358.00000	38.25943
360.00000	42.27778
362.00000	57.80311
364.00000	54.29193
366.00000	38.82869
368.00000	30.01002
370.00000	33.07101
372.00000	38.72001
374.00000	43.70881
376.00000	35.11701
378.00000	18.34695
380.00000	21.78593
382.00000	38.82507
384.00000	52.77243
386.00000	45.36350
388.00000	21.07105
390.00000	20.50983
392.00000	24.81772
394.00000	30.69522
396.00000	45.32021
398.00000	50.71936
400.00000	32.92638
402.00000	29.91043
404.00000	36.69362
406.00000	15.33852
408.00000	23.90282
410.00000	28.20840
412.00000	16.32452
414.00000	22.46527
416.00000	50.42718
418.00000	37.44452
420.00000	25.67800
422.00000	37.35332
424.00000	20.09727
426.00000	41.67786
428.00000	58.49338
430.00000	43.80022
432.00000	32.33002
434.00000	31.96985
436.00000	36.75874
438.00000	45.00830
440.00000	47.12760
442.00000	29.19665
444.00000	24.83861
446.00000	38.36994
448.00000	44.30696
450.00000	32.21537
452.00000	39.92388
454.00000	41.47475
456.00000	35.90665
458.00000	46.05986
460.00000	58.17182
462.00000	39.46431
464.00000	24.90236
466.00000	35.48145
468.00000	39.90255
470.00000	51.78558
472.00000	43.02406
474.00000	23.01105
476.00000	26.74016
478.00000	37.35024
480.00000	62.35252
482.00000	74.62305
484.00000	57.56243
486.00000	45.66272
488.00000	46.86614
490.00000	48.56408
492.00000	49.23173
494.00000	51.79333
496.00000	35.97356
498.00000	37.16304
500.00000	55.97842
502.00000	60.18487
504.00000	45.33339
506.00000	40.54867
508.00000	45.06937
510.00000	48.11975
512.00000	48.08007
514.00000	34.14046
516.00000	21.86250
518.00000	31.19503
520.00000	57.68002
522.00000	67.63728
524.00000	52.56961
526.00000	37.92772
528.00000	38.22118
530.00000	43.19957
532.00000	75.42354
534.00000	71.76867
536.00000	46.27906
538.00000	64.40710
540.00000	51.61309
542.00000	58.34114
544.00000	67.17121
546.00000	41.09901
548.00000	35.66620
550.00000	34.61551
552.00000	37.20355
554.00000	42.01212
556.00000	36.30658
558.00000	35.44141
560.00000	30.47959
562.00000	30.62930
564.00000	42.17289
566.00000	31.40347
568.00000	22.95894
570.00000	32.09301
572.00000	49.42158
574.00000	57.33269
576.00000	46.82501
578.00000	38.36360
580.00000	35.03859
582.00000	31.76357
584.00000	54.74396
586.00000	52.64223
588.00000	37.14176
590.00000	38.35002
592.00000	29.67631
594.00000	42.71364
596.00000	48.33065
598.00000	34.45586
600.00000	33.36865
602.00000	28.41813
604.00000	35.76572
606.00000	42.71976
608.00000	30.56616
610.00000	29.67233
612.00000	36.24039
614.00000	49.59453
616.00000	56.60973
618.00000	38.49493
620.00000	35.52764
622.00000	49.20625
624.00000	59.26605
626.00000	53.15639
628.00000	36.00857
630.00000	28.83085
632.00000	42.23054
634.00000	59.61570
636.00000	52.14730
638.00000	35.64946
640.00000	31.51251
642.00000	43.41782
644.00000	61.08492
646.00000	76.68613
648.00000	58.21016
650.00000	36.21558
652.00000	47.55037
654.00000	51.71064
656.00000	62.77329
658.00000	58.28469
660.00000	35.90174
662.00000	35.59742
664.00000	33.65507
666.00000	36.56895
668.00000	42.77651
670.00000	36.83978
672.00000	28.23634
674.00000	34.83605
676.00000	37.08575
678.00000	29.00070
680.00000	41.02036
682.00000	35.46650
684.00000	41.83390
686.00000	58.87743
688.00000	42.23310
690.00000	27.23733
692.00000	33.22252
694.00000	51.69465
696.00000	57.22009
698.00000	34.67419
700.00000	24.30708
702.00000	30.91021
704.00000	46.94400
706.00000	71.36715
708.00000	75.25767
710.00000	94.43059
712.00000	139.22093
714.00000	181.79208
716.00000	221.16403
718.00000	269.96509
720.00000	325.29132
722.00000	370.99579
724.00000	390.42435
726.00000	370.82526
728.00000	317.83035
730.00000	253.69028
732.00000	202.55263
734.00000	168.22575
736.00000	126.22729
738.00000	86.15645
740.00000	74.64596
742.00000	84.99940
744.00000	87.04369
746.00000	69.39637
748.00000	46.96712
750.00000	45.33872
752.00000	69.13333
754.00000	71.56335
756.00000	59.10080
758.00000	64.72275
760.00000	62.71205
762.00000	80.21351
764.00000	85.77560
766.00000	63.78447
768.00000	63.46981
770.00000	60.51115
772.00000	62.47482
774.00000	65.59608
776.00000	51.84147
778.00000	44.27780
780.00000	47.69733
782.00000	45.57091
784.00000	31.75597
786.00000	26.24979
788.00000	29.09228
790.00000	54.61692
792.00000	74.31508
794.00000	45.64210
796.00000	35.39449
798.00000	27.64943
800.00000	33.58368
802.00000	63.70037
804.00000	50.07931
806.00000	41.44341
808.00000	49.59416
810.00000	51.30074
812.00000	40.67498
814.00000	23.03039
816.00000	13.92600
818.00000	30.40344
820.00000	55.78168
822.00000	32.34523
824.00000	24.32832
826.00000	30.69864
828.00000	41.28048
830.00000	94.34814
832.00000	56.56749
834.00000	30.89031
836.00000	57.75604
838.00000	32.50920
840.00000	49.49142
842.00000	44.75842
844.00000	21.02695
846.00000	31.99943
848.00000	29.03220
850.00000	21.94619
852.00000	23.07483
854.00000	30.38418
856.00000	38.34964
858.00000	46.55205
860.00000	45.52134
862.00000	31.90432
864.00000	23.20428
866.00000	44.22390
868.00000	51.86254
870.00000	36.65414
872.00000	21.33702
874.00000	19.89154
876.00000	44.55504
878.00000	51.28342
880.00000	31.88159
882.00000	26.54781
884.00000	24.69269
886.00000	32.71574
888.00000	37.15178
890.00000	27.78779
892.00000	29.94583
894.00000	29.18591
896.00000	33.12295
898.00000	39.81713
900.00000	30.83142
902.00000	38.50927
904.00000	53.70839
906.00000	48.98914
908.00000	26.15399
910.00000	25.23139
912.00000	26.88932
914.00000	31.18825
916.00000	35.50210
918.00000	17.15184
920.00000	19.46874
922.00000	32.84346
924.00000	34.42361
926.00000	26.53355
928.00000	20.57206
930.00000	32.05800
932.00000	43.72839
934.00000	33.88600
936.00000	20.07076
938.00000	25.98577
940.00000	49.32227
942.00000	59.32001
944.00000	35.61790
946.00000	22.51088
948.00000	24.59361
950.00000	37.48970
952.00000	50.37029
954.00000	33.37483
956.00000	21.09455
958.00000	39.48075
960.00000	62.37461
962.00000	47.56202
964.00000	42.50401
966.00000	45.47692
968.00000	52.75552
970.00000	64.59088
972.00000	38.65512
974.00000	31.44446
976.00000	41.90952
978.00000	32.89745
980.00000	22.71520
982.00000	21.90460
984.00000	29.00622
986.00000	37.95744
988.00000	40.50574
990.00000	27.29932
992.00000	23.65815
994.00000	46.80564
996.00000	70.12883
998.00000	48.60497
1000.00000	48.41661
1002.00000	68.27032
1004.00000	64.19927
1006.00000	37.77215
1008.00000	32.61809
1010.00000	39.47803
1012.00000	39.15759
1014.00000	29.70303
1016.00000	14.11017
1018.00000	29.69691
1020.00000	51.05389
1022.00000	41.19225
1024.00000	27.05432
1026.00000	21.57191
1028.00000	28.23235
1030.00000	42.33928
1032.00000	51.87880
1034.00000	48.55417
1036.00000	58.09198
1038.00000	70.03801
1040.00000	57.85808
1042.00000	42.12537
1044.00000	43.95356
1046.00000	55.91394
1048.00000	55.58699
1050.00000	37.91283
1052.00000	36.09482
1054.00000	49.83646
1056.00000	59.73673
1058.00000	55.87114
1060.00000	52.93596
1062.00000	78.87310
1064.00000	114.80050
1066.00000	131.25706
1068.00000	135.50073
1070.00000	133.34143
1072.00000	168.62476
1074.00000	228.11984
1076.00000	250.87480
1078.00000	271.22345
1080.00000	328.51193
1082.00000	434.07019
1084.00000	568.59363
1086.00000	721.34766
1088.00000	986.61377
1090.00000	1407.71448
1092.00000	1960.57593
1094.00000	2552.97803
1096.00000	2969.99146
1098.00000	2991.04028
1100.00000	2588.00049
1102.00000	1952.34216
1104.00000	1341.01868
1106.00000	886.89020
1108.00000	591.97644
1110.00000	399.03119
1112.00000	271.10645
1114.00000	216.78148
1116.00000	203.97070
1118.00000	172.26970
1120.00000	111.85005
1122.00000	113.54884
1124.00000	130.23682
1126.00000	132.22673
1128.00000	127.03336
1130.00000	104.49094
1132.00000	115.17578
1134.00000	108.95947
1136.00000	67.83054
1138.00000	58.78352
1140.00000	50.23960
1142.00000	76.14159
1144.00000	87.14651
1146.00000	33.81415
1148.00000	40.15690
1150.00000	52.68513
1152.00000	62.02748
1154.00000	75.26817
1156.00000	58.44022
1158.00000	75.34457
1160.00000	69.97119
1162.00000	40.15377
1164.00000	53.25457
1166.00000	53.63755
1168.00000	54.56382
1170.00000	47.88092
1172.00000	32.39936
1174.00000	53.37952
1176.00000	46.95724
1178.00000	28.37339
1180.00000	31.44263
1182.00000	47.05564
1184.00000	78.36095
1186.00000	73.26686
1188.00000	45.62699
1190.00000	45.57638
1192.00000	47.11939
1194.00000	50.96385
1196.00000	44.18840
1198.00000	29.40137
1200.00000	37.23531
1202.00000	50.87896
1204.00000	50.21800
1206.00000	43.35637
1208.00000	46.25296
1210.00000	41.54778
1212.00000	39.96806
1214.00000	49.65314
1216.00000	69.26472
1218.00000	91.89323
1220.00000	88.58369
1222.00000	59.76519
1224.00000	51.50261
1226.00000	83.53893
1228.00000	55.50532
1230.00000	27.22653
1232.00000	32.04987
1234.00000	32.83925
1236.00000	23.77885
1238.00000	21.57051
1240.00000	30.68054
1242.00000	41.83543
1244.00000	43.61727
1246.00000	33.72771
1248.00000	44.24138
1250.00000	57.19416
1252.00000	35.60559
1254.00000	29.32695
1256.00000	37.82766
1258.00000	27.72703
1260.00000	7.25175
1262.00000	25.14108
1264.00000	13.15299
1266.00000	29.41156
1268.00000	71.32063
1270.00000	49.65131
1272.00000	47.51388
1274.00000	62.41889
1276.00000	64.72205
1278.00000	59.92036
1280.00000	75.79980
1282.00000	79.28806
1284.00000	70.60300
1286.00000	64.98045
1288.00000	63.39985
1290.00000	77.25600
1292.00000	61.85029
1294.00000	47.41279
1296.00000	83.68838
1298.00000	84.13706
1300.00000	73.01408
1302.00000	73.06647
1304.00000	93.70776
1306.00000	135.41069
1308.00000	104.83942
1310.00000	75.61603
1312.00000	90.48946
1314.00000	85.01717
1316.00000	72.30050
1318.00000	50.68537
1320.00000	43.72921
1322.00000	56.16713
1324.00000	36.00416
1326.00000	29.55286
1328.00000	61.52831
1330.00000	89.48093
1332.00000	65.24530
1334.00000	53.13808
1336.00000	78.16450
1338.00000	90.86940
1340.00000	58.43594
1342.00000	53.47506
1344.00000	63.90719
1346.00000	64.96630
1348.00000	53.43990
1350.00000	40.83160
1352.00000	37.89946
1354.00000	33.97887
1356.00000	37.99738
1358.00000	61.75776
1360.00000	59.86044
1362.00000	45.05772
1364.00000	40.52822
1366.00000	56.41023
1368.00000	84.66935
1370.00000	71.68442
1372.00000	46.59426
1374.00000	52.69174
1376.00000	68.82313
1378.00000	47.07416
1380.00000	30.72459
1382.00000	35.87910
1384.00000	43.43677
1386.00000	66.26630
1388.00000	50.93359
1390.00000	62.92618
1392.00000	107.46979
1394.00000	61.22028
1396.00000	54.14523
1398.00000	55.22521
1400.00000	39.34732
1402.00000	52.18673
1404.00000	54.91986
1406.00000	73.27261
1408.00000	67.26892
1410.00000	31.55255
1412.00000	71.31345
1414.00000	82.07253
1416.00000	69.39201
1418.00000	79.97508
1420.00000	109.10219
1422.00000	157.29347
1424.00000	124.95893
1426.00000	67.74047
1428.00000	94.17225
1430.00000	106.76962
1432.00000	88.91096
1434.00000	97.59018
1436.00000	142.95366
1438.00000	160.09070
1440.00000	167.34604
1442.00000	180.48105
1444.00000	188.72771
1446.00000	174.97139
1448.00000	146.88225
1450.00000	119.06736
1452.00000	98.89069
1454.00000	83.17060
1456.00000	70.00182
1458.00000	79.28008
1460.00000	72.27030
1462.00000	51.01277
1464.00000	63.56572
1466.00000	63.06897
1468.00000	52.47867
1470.00000	57.23208
1472.00000	75.73223
1474.00000	76.81970
1476.00000	86.10102
1478.00000	89.80976
1480.00000	69.17253
1482.00000	44.29689
1484.00000	30.74288
1486.00000	29.29044
1488.00000	38.80105
1490.00000	50.01151
1492.00000	41.63855
1494.00000	54.33012
1496.00000	67.76169
1498.00000	60.93386
1500.00000	79.40475
1502.00000	94.09418
1504.00000	79.09004
1506.00000	50.14781
1508.00000	48.64643
1510.00000	80.67886
1512.00000	72.36274
1514.00000	46.81836
1516.00000	70.42641
1518.00000	98.75191
1520.00000	76.96431
1522.00000	64.15450
1524.00000	93.48733
1526.00000	99.43855
1528.00000	89.55584
1530.00000	116.62981
1532.00000	129.33678
1534.00000	65.79217
1536.00000	42.29651
1538.00000	48.41975
1540.00000	45.70366
1542.00000	37.97145
1544.00000	53.59011
1546.00000	62.21222
1548.00000	60.81601
1550.00000	65.30869
1552.00000	79.13104
1554.00000	81.81789
1556.00000	61.32024
1558.00000	57.95680
1560.00000	78.21999
1562.00000	46.28148
1564.00000	35.50856
1566.00000	29.51157
1568.00000	27.05012
1570.00000	73.52151
1572.00000	55.77374
1574.00000	38.40434
1576.00000	65.77995
1578.00000	82.23600
1580.00000	61.71127
1582.00000	102.24281
1584.00000	109.94503
1586.00000	48.32155
1588.00000	81.39163
1590.00000	66.06488
1592.00000	38.21757
1594.00000	40.33149
1596.00000	33.93068
1598.00000	58.27678
1600.00000	76.76409
1602.00000	111.61716
1604.00000	155.68253
1606.00000	106.18282
1608.00000	98.88229
1610.00000	107.89167
1612.00000	85.82703
1614.00000	86.17318
1616.00000	88.94114
1618.00000	64.98798
1620.00000	49.64787
1622.00000	78.70493
1624.00000	89.86979
1626.00000	61.30111
1628.00000	63.79418
1630.00000	110.77335
1632.00000	108.68447
1634.00000	94.04587
1636.00000	71.61565
1638.00000	50.08050
1640.00000	52.56280
1642.00000	59.48829
1644.00000	48.26080
1646.00000	45.50721
1648.00000	71.61150
1650.00000	93.01784
1652.00000	123.80135
1654.00000	144.02269
1656.00000	129.54259
1658.00000	100.42072
1660.00000	107.71542
1662.00000	98.81084
1664.00000	79.19423
1666.00000	82.35342
1668.00000	60.08044
1670.00000	75.18132
1672.00000	80.56596
1674.00000	63.96138
1676.00000	118.74467
1678.00000	152.30838
1680.00000	127.39073
1682.00000	120.84555
1684.00000	163.88161
1686.00000	101.92670
1688.00000	80.51817
1690.00000	116.90150
1692.00000	110.39562
1694.00000	69.83874
1696.00000	77.67226
1698.00000	91.29066
1700.00000	85.91566
1702.00000	112.64230
1704.00000	143.62637
1706.00000	123.52599
1708.00000	87.65833
1710.00000	81.55653
1712.00000	48.50596
1714.00000	29.13122
1716.00000	57.12387
1718.00000	90.71915
1720.00000	67.78057
1722.00000	62.69128
1724.00000	112.48626
1726.00000	140.42673
1728.00000	99.16328
1730.00000	121.36179
1732.00000	106.03938
1734.00000	85.39089
1736.00000	96.96461
1738.00000	35.89499
1740.00000	44.86923
1742.00000	102.59521
1744.00000	104.01683
1746.00000	68.61974
1748.00000	162.30547
1750.00000	172.74597
1752.00000	136.27237
1754.00000	190.45958
1756.00000	158.24469
1758.00000	134.60646
1760.00000	108.79234
1762.00000	83.38834
1764.00000	124.58177
1766.00000	81.50964
1768.00000	102.34554
1770.00000	141.48676
1772.00000	67.45708
1774.00000	121.70081
1776.00000	127.50752
1778.00000	87.93245
1780.00000	101.41257
1782.00000	98.44611
1784.00000	73.68301
1786.00000	87.60153
1788.00000	109.35529
1790.00000	65.20020
1792.00000	54.01561
1794.00000	82.99885
1796.00000	112.74343
1798.00000	131.87480
1800.00000	159.28987
1802.00000	135.16293
1804.00000	71.68504
1806.00000	48.69207
1808.00000	98.47158
1810.00000	104.36600
1812.00000	111.70205
1814.00000	120.85311
1816.00000	97.17026
1818.00000	125.35072
1820.00000	155.29422
1822.00000	147.46562
1824.00000	130.74359
1826.00000	135.38342
1828.00000	86.85342
1830.00000	149.77345
1832.00000	205.27602
1834.00000	50.83308
1836.00000	119.87011
1838.00000	150.50056
1840.00000	105.46941
1842.00000	177.58932
1844.00000	270.41635
1846.00000	177.93790
1848.00000	101.48656
1850.00000	147.88759
1852.00000	116.80509
1854.00000	60.18256
1856.00000	91.13602
1858.00000	132.07564
1860.00000	112.96954
1862.00000	204.09143
1864.00000	175.04706
1866.00000	139.92540
1868.00000	186.44196
1870.00000	101.48213
1872.00000	98.05179
1874.00000	153.89206
1876.00000	130.39577
1878.00000	54.11709
1880.00000	131.14139
1882.00000	94.68995
1884.00000	101.98273
1886.00000	245.56175
1888.00000	98.23319
1890.00000	140.39912
1892.00000	171.57022
1894.00000	59.23878
1896.00000	97.84879
1898.00000	70.22217
1900.00000	65.98184
1902.00000	134.47285
1904.00000	179.26782
1906.00000	164.36472
1908.00000	144.00204
1910.00000	125.29808
1912.00000	112.33338
1914.00000	131.76669
1916.00000	125.97770
1918.00000	107.36858
1920.00000	103.71082
1922.00000	90.75307
1924.00000	32.03998
1926.00000	101.67614
1928.00000	157.78244
1930.00000	102.77116
1932.00000	173.10043
1934.00000	108.89084
1936.00000	70.13771
1938.00000	105.69872
1940.00000	24.30380
1942.00000	66.23824
1944.00000	84.23131
1946.00000	14.14730
1948.00000	30.73042
1950.00000	218.59894
1952.00000	169.80164
1954.00000	79.09753
1956.00000	131.08255
1958.00000	76.88596
1960.00000	80.12681
1962.00000	124.18900
1964.00000	113.57665
1966.00000	71.16289
1968.00000	134.01195
1970.00000	183.43852
1972.00000	187.43536
1974.00000	172.75374
1976.00000	118.25670
1978.00000	120.08871
1980.00000	70.46782
1982.00000	19.98399
1984.00000	118.03104
1986.00000	103.65990
1988.00000	88.88583
1990.00000	123.49860
1992.00000	125.94951
1994.00000	96.68195
1996.00000	46.42171
1998.00000	40.86626
2000.00000	16.16023
2002.00000	33.53406
2004.00000	26.70985
2006.00000	20.54850
2008.00000	36.69838
2010.00000	52.84671
2012.00000	29.31385
2014.00000	28.99534
2016.00000	64.04707
2018.00000	75.37860
2020.00000	40.18874
2022.00000	43.07705
2024.00000	67.78014
2026.00000	60.19498
2028.00000	35.71546
2030.00000	27.41464
2032.00000	32.46442
2034.00000	45.58284
2036.00000	60.76412
2038.00000	41.54391
2040.00000	10.10688
2042.00000	14.83910
2044.00000	48.31888
2046.00000	35.59101
2048.00000	33.52966
2050.00000	62.54083
2052.00000	80.71287
2054.00000	60.06774
2056.00000	69.52147
2058.00000	92.19038
2060.00000	89.60017
2062.00000	66.96170
2064.00000	61.92993
2066.00000	85.59475
2068.00000	98.71272
2070.00000	84.58735
2072.00000	93.53974
2074.00000	98.24270
2076.00000	88.38332
2078.00000	81.70827
2080.00000	90.29327
2082.00000	93.57917
2084.00000	93.56162
2086.00000	90.35609
2088.00000	71.59550
2090.00000	38.43925
2092.00000	40.22477
2094.00000	64.35270
2096.00000	71.24290
2098.00000	66.44096
2100.00000	50.30293
2102.00000	41.67545
2104.00000	42.66788
2106.00000	31.02647
2108.00000	13.76497
2110.00000	17.55946
2112.00000	43.55704
2114.00000	62.04260
2116.00000	53.46896
2118.00000	59.24311
2120.00000	72.09660
2122.00000	68.05181
2124.00000	62.60295
2126.00000	49.94079
2128.00000	44.41367
2130.00000	51.83859
2132.00000	53.90976
2134.00000	41.94196
2136.00000	40.10388
2138.00000	43.21481
2140.00000	27.27311
2142.00000	10.79882
2144.00000	40.46198
2146.00000	64.02785
2148.00000	38.09552
2150.00000	23.79128
2152.00000	39.03744
2154.00000	49.48547
2156.00000	51.75255
2158.00000	69.12411
2160.00000	59.75220
2162.00000	37.76474
2164.00000	38.06315
2166.00000	58.41350
2168.00000	52.95797
2170.00000	46.48237
2172.00000	48.57418
2174.00000	50.12320
2176.00000	49.93818
2178.00000	50.00895
2180.00000	44.72028
2182.00000	35.60829
2184.00000	32.77072
2186.00000	39.39690
2188.00000	58.61974
2190.00000	53.53877
2192.00000	19.36522
2194.00000	35.25892
2196.00000	63.52517
2198.00000	59.07100
2200.00000	39.61936
2202.00000	55.36643
2204.00000	69.91605
2206.00000	51.14826
2208.00000	27.09503
2210.00000	42.36235
2212.00000	65.07124
2214.00000	59.44763
2216.00000	36.41914
2218.00000	31.22679
2220.00000	53.43631
2222.00000	76.19711
2224.00000	58.61889
2226.00000	24.54160
2228.00000	42.00627
2230.00000	62.86599
2232.00000	52.91967
2234.00000	41.71354
2236.00000	68.06443
2238.00000	91.81162
2240.00000	72.95714
2242.00000	55.07663
2244.00000	78.18143
2246.00000	90.46825
2248.00000	75.50024
2250.00000	71.91392
2252.00000	84.71738
2254.00000	73.08047
2256.00000	62.77065
2258.00000	69.59953
2260.00000	77.42479
2262.00000	69.56577
2264.00000	64.88258
2266.00000	57.12673
2268.00000	49.47504
2270.00000	54.91458
2272.00000	71.59137
2274.00000	68.84057
2276.00000	57.55067
2278.00000	57.75459
2280.00000	58.13397
2282.00000	29.94474
2284.00000	26.41020
2286.00000	51.38844
2288.00000	51.87297
2290.00000	26.02785
2292.00000	45.49492
2294.00000	77.48153
2296.00000	60.72440
2298.00000	27.47489
2300.00000	38.23693
2302.00000	50.99117
2304.00000	27.15095
2306.00000	7.91004
2308.00000	47.71444
2310.00000	67.01636
2312.00000	39.69446
2314.00000	23.39054
2316.00000	41.24438
2318.00000	24.77617
2320.00000	21.69445
2322.00000	58.45039
2324.00000	54.97392
2326.00000	75.87065
2328.00000	89.77405
2330.00000	79.68274
2332.00000	85.34083
2334.00000	90.35075
2336.00000	89.29320
2338.00000	88.18794
2340.00000	84.40850
2342.00000	64.85526
2344.00000	56.70109
2346.00000	53.97574
2348.00000	64.41179
2350.00000	105.37572
2352.00000	80.51569
2354.00000	47.88087
2356.00000	60.98248
2358.00000	69.88427
2360.00000	24.93252
2362.00000	42.01428
2364.00000	107.73647
2366.00000	108.13051
2368.00000	42.12693
2370.00000	39.26112
2372.00000	58.79239
2374.00000	31.83730
2376.00000	12.75498
2378.00000	57.21024
2380.00000	80.38559
2382.00000	62.01856
2384.00000	72.93097
2386.00000	103.44655
2388.00000	89.68353
2390.00000	65.66581
2392.00000	81.71764
2394.00000	90.45493
2396.00000	82.12727
2398.00000	65.47261
2400.00000	62.20224
2402.00000	82.18770
2404.00000	83.09141
2406.00000	82.62025
2408.00000	91.52162
2410.00000	93.16116
2412.00000	83.01160
2414.00000	54.66331
2416.00000	46.94287
2418.00000	78.66153
2420.00000	94.94474
2422.00000	74.28013
2424.00000	63.89669
2426.00000	77.86631
2428.00000	63.48431
2430.00000	12.48703
2432.00000	35.10382
2434.00000	92.43147
2436.00000	83.32318
2438.00000	99.21889
2440.00000	131.34814
2442.00000	117.57749
2444.00000	71.18517
2446.00000	83.12624
2448.00000	89.78045
2450.00000	90.95480
2452.00000	93.70134
2454.00000	75.76582
2456.00000	60.80499
2458.00000	60.29233
2460.00000	61.17912
2462.00000	69.67590
2464.00000	115.25737
2466.00000	77.33720
2468.00000	36.96819
2470.00000	87.16360
2472.00000	116.87815
2474.00000	51.08358
2476.00000	31.91389
2478.00000	83.83288
2480.00000	68.25970
2482.00000	23.26563
2484.00000	33.45163
2486.00000	68.27597
2488.00000	54.90956
2490.00000	30.04214
2492.00000	53.55182
2494.00000	69.60958
2496.00000	49.84442
2498.00000	65.86001
2500.00000	80.90702
2502.00000	55.65910
2504.00000	39.64753
2506.00000	87.95911
2508.00000	101.98142
2510.00000	68.27190
2512.00000	60.90188
2514.00000	110.30582
2516.00000	119.75994
2518.00000	54.20613
2520.00000	31.29751
2522.00000	66.83569
2524.00000	33.02458
2526.00000	40.21072
2528.00000	87.73884
2530.00000	85.42587
2532.00000	31.36916
2534.00000	90.40921
2536.00000	126.04227
2538.00000	74.60722
2540.00000	47.80675
2542.00000	130.49628
2544.00000	101.66382
2546.00000	41.94364
2548.00000	79.35796
2550.00000	135.75937
2552.00000	136.44440
2554.00000	74.02045
2556.00000	52.40874
2558.00000	109.37051
2560.00000	60.17143
2562.00000	53.72637
2564.00000	121.19134
2566.00000	137.52313
2568.00000	71.34431
2570.00000	128.78731
2572.00000	194.93367
2574.00000	146.69366
2576.00000	89.29337
2578.00000	105.53984
2580.00000	148.22791
2582.00000	137.02386
2584.00000	86.47166
2586.00000	115.03041
2588.00000	119.90202
2590.00000	60.51373
2592.00000	36.13367
2594.00000	128.76709
2596.00000	144.48137
2598.00000	78.82486
2600.00000	45.65431
2602.00000	85.14524
2604.00000	104.69742
2606.00000	112.67288
2608.00000	120.69568
2610.00000	114.59322
2612.00000	109.68410
2614.00000	142.87987
2616.00000	135.88350
2618.00000	76.62835
2620.00000	100.62713
2622.00000	153.07310
2624.00000	98.58966
2626.00000	13.08718
2628.00000	74.61330
2630.00000	128.76204
2632.00000	86.22529
2634.00000	67.48654
2636.00000	134.19232
2638.00000	84.11580
2640.00000	49.81165
2642.00000	85.97997
2644.00000	109.29343
2646.00000	75.40968
2648.00000	129.94225
2650.00000	131.72073
2652.00000	57.31799
2654.00000	73.57275
2656.00000	134.66885
2658.00000	128.50729
2660.00000	83.33592
2662.00000	72.63708
2664.00000	56.14552
2666.00000	45.80969
2668.00000	71.63890
2670.00000	109.49400
2672.00000	95.88371
2674.00000	62.09814
2676.00000	64.77677
2678.00000	59.45049
2680.00000	12.22743
2682.00000	80.05772
2684.00000	155.56958
2686.00000	118.68369
2688.00000	28.54248
2690.00000	59.95237
2692.00000	120.15336
2694.00000	84.41745
2696.00000	34.83768
2698.00000	127.26572
2700.00000	133.80658
2702.00000	104.13043
2704.00000	112.74273
2706.00000	109.15710
2708.00000	61.69252
2710.00000	87.63345
2712.00000	85.69118
2714.00000	0.50094
2716.00000	58.81012
2718.00000	175.89412
2720.00000	146.83722
2722.00000	58.69581
2724.00000	157.86922
2726.00000	178.98338
2728.00000	117.56905
2730.00000	114.94483
2732.00000	174.71640
2734.00000	111.19760
2736.00000	106.09225
2738.00000	133.60901
2740.00000	86.71246
2742.00000	74.40349
2744.00000	181.31242
2746.00000	170.18028
2748.00000	75.60825
2750.00000	172.09991
2752.00000	168.13579
2754.00000	122.18623
2756.00000	145.11479
2758.00000	162.35321
2760.00000	49.69401
2762.00000	92.01066
2764.00000	184.01192
2766.00000	131.88008
2768.00000	89.29714
2770.00000	163.07925
2772.00000	150.09592
2774.00000	59.53373
2776.00000	126.28784
2778.00000	200.74301
2780.00000	146.82878
2782.00000	89.56007
2784.00000	138.90233
2786.00000	105.95825
2788.00000	91.40258
2790.00000	111.01950
2792.00000	102.09544
2794.00000	70.50893
2796.00000	86.62152
2798.00000	85.06637
2800.00000	86.18597
2802.00000	145.22205
2804.00000	87.53111
2806.00000	37.20837
2808.00000	82.55637
2810.00000	130.45551
2812.00000	67.96201
2814.00000	80.89297
2816.00000	106.19419
2818.00000	58.42567
2820.00000	41.81425
2822.00000	54.94379
2824.00000	94.03597
2826.00000	127.66027
2828.00000	96.06673
2830.00000	3.28575
2832.00000	69.05286
2834.00000	168.65266
2836.00000	116.93008
2838.00000	101.96217
2840.00000	152.14246
2842.00000	146.97743
2844.00000	92.61733
2846.00000	122.55777
2848.00000	114.91133
2850.00000	107.52081
2852.00000	151.06265
2854.00000	180.46725
2856.00000	110.29388
2858.00000	159.83751
2860.00000	202.61829
2862.00000	116.82955
2864.00000	167.61702
2866.00000	203.03369
2868.00000	184.72197
2870.00000	169.18553
2872.00000	181.98531
2874.00000	229.77344
2876.00000	206.04810
2878.00000	148.35565
2880.00000	158.23747
2882.00000	152.55817
2884.00000	168.55653
2886.00000	171.42598
2888.00000	139.55203
2890.00000	156.68787
2892.00000	187.00674
2894.00000	144.87486
2896.00000	132.43344
2898.00000	262.56158
2900.00000	198.96193
2902.00000	135.14714
2904.00000	213.24483
2906.00000	272.99097
2908.00000	171.48518
2910.00000	230.65530
2912.00000	329.87741
2914.00000	219.00441
2916.00000	75.72824
2918.00000	208.56763
2920.00000	212.69762
2922.00000	53.46880
2924.00000	156.86432
2926.00000	195.25172
2928.00000	185.98575
2930.00000	161.36221
2932.00000	120.50384
2934.00000	176.73465
2936.00000	186.24281
2938.00000	78.40106
2940.00000	35.53162
2942.00000	206.98135
2944.00000	94.43578
2946.00000	74.38010
2948.00000	192.26466
2950.00000	43.81163
2952.00000	38.81707
2954.00000	129.09904
2956.00000	157.15846
2958.00000	127.92786
2960.00000	135.75232
2962.00000	77.64513
2964.00000	95.81532
2966.00000	165.55302
2968.00000	52.13214
2970.00000	135.45906
2972.00000	137.39149
2974.00000	81.23339
2976.00000	217.96318
2978.00000	58.31896
2980.00000	33.16777
2982.00000	135.62166
2984.00000	119.07281
2986.00000	209.49083
2988.00000	223.91389
2990.00000	157.95645
2992.00000	121.13074
2994.00000	129.62703
2996.00000	145.62376
2998.00000	220.49852
3000.00000	236.23753
3002.00000	158.57040
3004.00000	336.30893
3006.00000	170.65738
3008.00000	53.93730
3010.00000	333.91891
3012.00000	195.42018
3014.00000	199.59485
3016.00000	312.36182
3018.00000	213.08002
3020.00000	55.78340
3022.00000	319.40646
3024.00000	334.38843
3026.00000	122.82173
3028.00000	267.66159
3030.00000	373.18378
3032.00000	330.54181
3034.00000	280.37613
3036.00000	302.94016
3038.00000	278.65897
3040.00000	190.13640
3042.00000	315.16922
3044.00000	430.07727
3046.00000	118.49403
3048.00000	143.92790
3050.00000	179.82253
3052.00000	146.02744
3054.00000	282.95441
3056.00000	308.07343
3058.00000	409.09027
3060.00000	291.52542
3062.00000	-2.60966
3064.00000	215.44736
3066.00000	273.86877
3068.00000	81.13506
3070.00000	69.65247
3072.00000	356.13931
3074.00000	264.07199
3076.00000	97.75674
3078.00000	176.85979
3080.00000	319.12335
3082.00000	204.57019
3084.00000	176.05219
3086.00000	293.19998
3088.00000	288.09244
3090.00000	100.63232
3092.00000	286.97446
3094.00000	354.74258
3096.00000	192.68787
3098.00000	228.98483
3100.00000	38.81626
3102.00000	103.50010
3104.00000	273.94949
3106.00000	166.06734
3108.00000	207.37932
3110.00000	193.94638
3112.00000	127.97887
3114.00000	87.18643
3116.00000	44.77366
3118.00000	217.18272
3120.00000	230.14679
3122.00000	131.43044
3124.00000	236.40224
3126.00000	62.11090
3128.00000	33.04351
3130.00000	144.61884
3132.00000	145.28264
3134.00000	232.20415
3136.00000	166.32222
3138.00000	55.29020
3140.00000	75.92044
3142.00000	103.30779
3144.00000	-22.37563
3146.00000	176.75180
3148.00000	415.34830
3150.00000	210.82632
3152.00000	406.67554
3154.00000	232.39043
3156.00000	103.18321
3158.00000	520.16412
3160.00000	432.17770
3162.00000	84.17413
3164.00000	99.52197
3166.00000	298.35507
3168.00000	116.53946
3170.00000	375.94144
3172.00000	523.60321
3174.00000	334.53650
3176.00000	252.77518
3178.00000	195.33470
3180.00000	7.00326
3182.00000	120.84180
3184.00000	490.27469
3186.00000	252.15508
3188.00000	219.97418
3190.00000	144.21945
3192.00000	23.25460
3194.00000	402.51196
3196.00000	440.38071
3198.00000	481.11835
3200.00000	393.96152
