300.00000	341.17480
302.00000	338.71152
304.00000	317.66257
306.00000	294.20847
308.00000	294.06482
310.00000	333.88431
312.00000	394.69669
314.00000	497.39014
316.00000	678.70428
318.00000	962.21906
320.00000	1357.40735
322.00000	1772.82288
324.00000	2085.57837
326.00000	2204.49072
328.00000	2096.48730
330.00000	1793.19910
332.00000	1409.85181
334.00000	1063.61414
336.00000	800.56683
338.00000	619.25378
340.00000	481.50513
342.00000	370.75974
344.00000	297.37286
346.00000	251.92780
348.00000	219.58693
350.00000	191.62564
352.00000	169.07748
354.00000	156.13510
356.00000	143.05574
358.00000	124.98263
360.00000	105.04446
362.00000	87.78503
364.00000	71.86199
366.00000	60.36615
368.00000	54.03387
370.00000	52.54017
372.00000	54.54171
374.00000	37.06012
376.00000	22.40196
378.00000	29.50688
380.00000	34.54031
382.00000	30.75010
384.00000	30.14939
386.00000	35.05003
388.00000	36.13083
390.00000	34.76550
392.00000	36.13256
394.00000	33.47419
396.00000	33.05707
398.00000	54.74864
400.00000	53.43809
402.00000	36.78745
404.00000	26.90919
406.00000	24.17002
408.00000	33.93119
410.00000	52.93114
412.00000	59.36009
414.00000	49.83554
416.00000	58.13237
418.00000	53.33126
420.00000	63.95959
422.00000	84.37225
424.00000	54.55954
426.00000	47.10178
428.00000	35.51912
430.00000	26.23829
432.00000	50.85758
434.00000	42.62218
436.00000	38.21595
438.00000	44.36414
440.00000	49.52122
442.00000	68.52352
444.00000	67.32730
446.00000	53.31243
448.00000	45.42566
450.00000	46.49465
452.00000	58.23223
454.00000	65.07730
456.00000	58.46906
458.00000	46.04811
460.00000	41.39584
462.00000	44.56188
464.00000	50.62103
466.00000	53.22593
468.00000	48.96696
470.00000	44.75314
472.00000	47.03357
474.00000	50.29011
476.00000	45.06663
478.00000	36.43423
480.00000	38.02417
482.00000	44.65886
484.00000	48.46595
486.00000	52.82415
488.00000	47.18585
490.00000	48.56547
492.00000	55.26763
494.00000	48.49870
496.00000	49.46947
498.00000	58.79332
500.00000	59.81345
502.00000	51.81404
504.00000	57.28222
506.00000	51.32013
508.00000	42.61483
510.00000	45.76170
512.00000	53.14317
514.00000	63.64147
516.00000	70.06038
518.00000	65.33981
520.00000	55.47516
522.00000	60.99820
524.00000	78.96048
526.00000	87.97552
528.00000	83.28091
530.00000	84.27555
532.00000	82.71524
534.00000	81.55545
536.00000	87.38985
538.00000	93.47254
540.00000	80.10337
542.00000	59.55521
544.00000	53.01564
546.00000	66.82600
548.00000	85.31114
550.00000	89.61166
552.00000	80.19412
554.00000	70.23849
556.00000	68.04036
558.00000	65.43515
560.00000	64.14997
562.00000	66.87337
564.00000	69.49883
566.00000	67.88928
568.00000	79.82797
570.00000	82.55189
572.00000	77.65223
574.00000	100.22081
576.00000	81.62600
578.00000	80.20844
580.00000	91.39008
582.00000	56.69318
584.00000	60.49096
586.00000	62.94859
588.00000	46.45417
590.00000	35.80747
592.00000	39.59964
594.00000	60.03902
596.00000	95.26837
598.00000	107.68201
600.00000	73.67204
602.00000	80.71818
604.00000	89.60580
606.00000	98.77992
608.00000	123.11413
610.00000	96.61543
612.00000	82.11598
614.00000	82.81465
616.00000	82.71499
618.00000	97.44398
620.00000	85.93504
622.00000	75.57361
624.00000	82.44674
626.00000	85.87308
628.00000	84.83342
630.00000	81.75835
632.00000	81.57493
634.00000	82.71182
636.00000	78.26312
638.00000	83.21872
640.00000	96.55125
642.00000	101.88814
644.00000	95.57684
646.00000	107.30151
648.00000	115.36887
650.00000	108.73874
652.00000	97.57848
654.00000	85.34294
656.00000	81.74434
658.00000	80.82298
660.00000	73.03016
662.00000	60.33937
664.00000	51.66601
666.00000	53.09134
668.00000	64.52794
670.00000	78.10590
672.00000	80.77748
674.00000	71.21529
676.00000	72.09221
678.00000	86.56502
680.00000	84.29780
682.00000	84.41487
684.00000	88.20832
686.00000	86.62986
688.00000	75.79510
690.00000	56.00569
692.00000	44.92304
694.00000	47.46489
696.00000	49.75039
698.00000	41.57248
700.00000	46.68317
702.00000	40.86852
704.00000	26.34766
706.00000	41.05116
708.00000	31.71912
710.00000	24.16510
712.00000	42.73635
714.00000	73.21576
716.00000	102.27423
718.00000	123.26460
720.00000	135.14992
722.00000	146.29587
724.00000	167.76654
726.00000	190.22734
728.00000	221.78992
730.00000	257.28464
732.00000	282.72598
734.00000	314.90222
736.00000	337.97165
738.00000	330.19736
740.00000	297.49677
742.00000	273.23615
744.00000	257.13364
746.00000	240.42848
748.00000	205.82201
750.00000	149.90584
752.00000	124.23807
754.00000	121.05206
756.00000	118.65232
758.00000	108.13481
760.00000	87.31637
762.00000	79.89804
764.00000	92.14317
766.00000	106.53906
768.00000	102.11043
770.00000	81.36037
772.00000	60.64176
774.00000	67.34246
776.00000	99.29903
778.00000	93.85339
780.00000	85.15170
782.00000	84.54617
784.00000	87.06876
786.00000	108.86404
788.00000	94.09364
790.00000	69.57143
792.00000	68.38071
794.00000	73.88657
796.00000	85.64903
798.00000	91.16051
800.00000	81.01192
802.00000	64.09026
804.00000	60.53645
806.00000	58.70466
808.00000	63.34456
810.00000	77.39370
812.00000	83.73513
814.00000	79.54688
816.00000	78.11807
818.00000	83.95411
820.00000	92.28843
822.00000	104.37870
824.00000	97.78387
826.00000	83.77553
828.00000	77.84700
830.00000	70.57310
832.00000	97.00301
834.00000	115.15919
836.00000	93.85423
838.00000	64.42903
840.00000	51.03677
842.00000	68.75896
844.00000	80.85018
846.00000	58.83573
848.00000	51.20356
850.00000	61.96983
852.00000	68.02533
854.00000	55.12400
856.00000	36.35964
858.00000	37.09873
860.00000	57.02699
862.00000	71.72961
864.00000	63.98285
866.00000	54.06264
868.00000	58.25471
870.00000	64.79021
872.00000	60.18310
874.00000	55.37395
876.00000	59.95486
878.00000	62.51373
880.00000	54.36098
882.00000	46.64201
884.00000	56.57543
886.00000	64.01420
888.00000	60.50907
890.00000	55.17387
892.00000	51.13391
894.00000	51.40816
896.00000	65.77428
898.00000	71.65263
900.00000	41.06441
902.00000	42.53758
904.00000	44.35258
906.00000	45.19751
908.00000	64.70797
910.00000	41.26083
912.00000	32.97977
914.00000	41.30582
916.00000	40.74961
918.00000	50.17394
920.00000	52.40355
922.00000	56.14178
924.00000	62.83038
926.00000	61.89396
928.00000	69.56596
930.00000	73.41180
932.00000	70.52530
934.00000	68.81288
936.00000	66.73804
938.00000	64.23139
940.00000	62.94106
942.00000	63.35233
944.00000	60.84188
946.00000	47.09714
948.00000	39.79694
950.00000	46.69615
952.00000	56.92867
954.00000	62.45885
956.00000	65.33242
958.00000	70.00094
960.00000	72.84126
962.00000	67.14935
964.00000	67.72643
966.00000	66.27115
968.00000	58.79433
970.00000	56.57907
972.00000	61.06967
974.00000	58.01337
976.00000	52.32568
978.00000	55.90380
980.00000	59.93131
982.00000	50.40226
984.00000	44.42222
986.00000	54.93784
988.00000	69.69567
990.00000	79.06182
992.00000	76.04313
994.00000	60.65528
996.00000	53.38312
998.00000	81.53357
1000.00000	86.38393
1002.00000	69.72920
1004.00000	59.59985
1006.00000	52.66862
1008.00000	62.77401
1010.00000	61.26982
1012.00000	43.63208
1014.00000	35.05978
1016.00000	29.19643
1018.00000	35.92619
1020.00000	44.83999
1022.00000	47.17543
1024.00000	60.46999
1026.00000	72.65691
1028.00000	55.57477
1030.00000	31.59366
1032.00000	43.01958
1034.00000	35.41005
1036.00000	27.39524
1038.00000	21.31455
1040.00000	14.63294
1042.00000	44.30268
1044.00000	34.26482
1046.00000	27.53126
1048.00000	56.32880
1050.00000	49.88446
1052.00000	39.24319
1054.00000	32.35842
1056.00000	31.32335
1058.00000	45.85427
1060.00000	68.69405
1062.00000	74.20969
1064.00000	76.66534
1066.00000	100.06758
1068.00000	131.19814
1070.00000	153.06453
1072.00000	199.80090
1074.00000	284.24249
1076.00000	382.79242
1078.00000	512.83032
1080.00000	686.32947
1082.00000	928.89874
1084.00000	1262.49792
1086.00000	1668.25635
1088.00000	2096.55640
1090.00000	2522.48877
1092.00000	2873.65918
1094.00000	3028.06787
1096.00000	2967.33643
1098.00000	2694.59033
1100.00000	2286.12793
1102.00000	1854.94409
1104.00000	1450.40222
1106.00000	1121.01929
1108.00000	881.27368
1110.00000	718.96173
1112.00000	607.90997
1114.00000	492.82608
1116.00000	402.98099
1118.00000	351.53821
1120.00000	306.77020
1122.00000	282.85513
1124.00000	257.25412
1126.00000	222.90645
1128.00000	193.56403
1130.00000	170.78165
1132.00000	140.35344
1134.00000	116.42037
1136.00000	114.01458
1138.00000	117.14315
1140.00000	97.05769
1142.00000	96.27959
1144.00000	108.00475
1146.00000	91.11649
1148.00000	76.28384
1150.00000	69.81947
1152.00000	75.95923
1154.00000	82.09303
1156.00000	66.63731
1158.00000	72.99406
1160.00000	86.25509
1162.00000	82.55918
1164.00000	67.19545
1166.00000	50.62470
1168.00000	53.56062
1170.00000	62.85503
1172.00000	52.95723
1174.00000	33.56046
1176.00000	39.95280
1178.00000	61.24504
1180.00000	65.97516
1182.00000	51.25697
1184.00000	52.07729
1186.00000	45.03438
1188.00000	43.49506
1190.00000	64.11360
1192.00000	48.31656
1194.00000	44.17170
1196.00000	46.62607
1198.00000	33.04251
1200.00000	29.38642
1202.00000	40.46135
1204.00000	41.77103
1206.00000	32.31885
1208.00000	28.14043
1210.00000	18.48815
1212.00000	58.44046
1214.00000	80.06473
1216.00000	38.64319
1218.00000	51.69504
1220.00000	59.26823
1222.00000	48.90791
1224.00000	41.16652
1226.00000	36.52855
1228.00000	36.88074
1230.00000	30.82284
1232.00000	25.99049
1234.00000	36.20006
1236.00000	47.55431
1238.00000	46.68032
1240.00000	38.34702
1242.00000	44.51952
1244.00000	72.53807
1246.00000	69.80238
1248.00000	49.02384
1250.00000	42.45593
1252.00000	51.63156
1254.00000	49.21672
1256.00000	26.90669
1258.00000	34.49223
1260.00000	70.10205
1262.00000	43.58790
1264.00000	26.95694
1266.00000	29.49656
1268.00000	50.00507
1270.00000	91.45238
1272.00000	71.19487
1274.00000	61.98735
1276.00000	85.39841
1278.00000	86.30611
1280.00000	59.98682
1282.00000	53.24500
1284.00000	61.20559
1286.00000	64.09825
1288.00000	65.30542
1290.00000	50.11972
1292.00000	53.78286
1294.00000	73.41526
1296.00000	69.86842
1298.00000	61.73043
1300.00000	102.78484
1302.00000	99.68211
1304.00000	39.24916
1306.00000	91.68291
1308.00000	102.28419
1310.00000	71.75362
1312.00000	61.86662
1314.00000	70.06730
1316.00000	86.48652
1318.00000	65.98024
1320.00000	48.04300
1322.00000	69.21154
1324.00000	53.94666
1326.00000	42.79062
1328.00000	60.66449
1330.00000	82.47185
1332.00000	80.22756
1334.00000	82.90093
1336.00000	66.31651
1338.00000	45.79423
1340.00000	52.63048
1342.00000	45.32498
1344.00000	67.49944
1346.00000	83.61526
1348.00000	59.19641
1350.00000	46.94345
1352.00000	34.99791
1354.00000	66.74393
1356.00000	106.15022
1358.00000	75.51311
1360.00000	67.84800
1362.00000	84.28021
1364.00000	79.41890
1366.00000	50.87030
1368.00000	57.43975
1370.00000	90.33437
1372.00000	95.29880
1374.00000	56.23585
1376.00000	28.63377
1378.00000	61.58617
1380.00000	68.32102
1382.00000	59.95432
1384.00000	96.91240
1386.00000	91.25748
1388.00000	67.83077
1390.00000	50.85857
1392.00000	57.59668
1394.00000	97.44556
1396.00000	86.74149
1398.00000	68.54360
1400.00000	72.61496
1402.00000	61.91143
1404.00000	47.61965
1406.00000	52.79985
1408.00000	62.10874
1410.00000	65.70940
1412.00000	88.63538
1414.00000	80.14044
1416.00000	92.81647
1418.00000	104.57879
1420.00000	38.72585
1422.00000	73.35717
1424.00000	99.12495
1426.00000	56.24753
1428.00000	24.48938
1430.00000	33.70695
1432.00000	67.97163
1434.00000	70.96021
1436.00000	50.81639
1438.00000	82.83900
1440.00000	105.85137
1442.00000	96.19009
1444.00000	97.12343
1446.00000	127.99859
1448.00000	105.00022
1450.00000	80.96350
1452.00000	84.30084
1454.00000	85.42619
1456.00000	63.14061
1458.00000	39.98975
1460.00000	41.82188
1462.00000	62.78401
1464.00000	73.79251
1466.00000	72.43500
1468.00000	77.93469
1470.00000	91.98721
1472.00000	91.71875
1474.00000	66.76468
1476.00000	78.73173
1478.00000	79.85311
1480.00000	43.19421
1482.00000	43.44169
1484.00000	58.45968
1486.00000	62.91801
1488.00000	53.85257
1490.00000	42.05188
1492.00000	40.50500
1494.00000	73.83141
1496.00000	86.59324
1498.00000	65.14223
1500.00000	91.28279
1502.00000	62.88985
1504.00000	65.43329
1506.00000	114.05821
1508.00000	87.38081
1510.00000	51.82554
1512.00000	53.35395
1514.00000	61.19865
1516.00000	45.20444
1518.00000	49.30151
1520.00000	71.20370
1522.00000	63.10318
1524.00000	55.48855
1526.00000	115.08739
1528.00000	89.16593
1530.00000	43.59199
1532.00000	47.27361
1534.00000	66.51362
1536.00000	73.63050
1538.00000	49.08232
1540.00000	62.19715
1542.00000	113.22655
1544.00000	76.78085
1546.00000	43.68377
1548.00000	84.76509
1550.00000	138.33946
1552.00000	120.73250
1554.00000	124.78007
1556.00000	131.30995
1558.00000	111.03014
1560.00000	94.92003
1562.00000	124.53364
1564.00000	110.52399
1566.00000	77.09912
1568.00000	80.24037
1570.00000	97.74897
1572.00000	89.23336
1574.00000	69.65178
1576.00000	78.09239
1578.00000	111.32312
1580.00000	109.22250
1582.00000	120.87738
1584.00000	111.59243
1586.00000	59.20124
1588.00000	51.50701
1590.00000	91.07192
1592.00000	95.57275
1594.00000	62.92981
1596.00000	76.38950
1598.00000	125.67069
1600.00000	112.40646
1602.00000	74.14226
1604.00000	89.79447
1606.00000	104.42635
1608.00000	91.53043
1610.00000	87.26125
1612.00000	89.34769
1614.00000	54.44653
1616.00000	40.33626
1618.00000	47.51163
1620.00000	62.28996
1622.00000	70.78960
1624.00000	57.10937
1626.00000	107.61893
1628.00000	121.97449
1630.00000	80.84915
1632.00000	137.78061
1634.00000	73.15804
1636.00000	52.30345
1638.00000	110.08033
1640.00000	73.65565
1642.00000	75.89653
1644.00000	92.36977
1646.00000	93.58742
1648.00000	83.47908
1650.00000	60.83926
1652.00000	78.33269
1654.00000	77.56388
1656.00000	59.76245
1658.00000	103.53881
1660.00000	111.49084
1662.00000	60.61018
1664.00000	49.06424
1666.00000	106.91410
1668.00000	70.86131
1670.00000	28.75455
1672.00000	55.49084
1674.00000	95.05872
1676.00000	60.84253
1678.00000	61.11360
1680.00000	119.63621
1682.00000	126.48927
1684.00000	36.29249
1686.00000	43.73183
1688.00000	49.07802
1690.00000	29.92069
1692.00000	51.76546
1694.00000	89.33565
1696.00000	71.79017
1698.00000	55.43404
1700.00000	66.90055
1702.00000	56.79523
1704.00000	63.87475
1706.00000	55.36532
1708.00000	21.51709
1710.00000	18.06269
1712.00000	81.66114
1714.00000	58.14927
1716.00000	20.60124
1718.00000	63.62923
1720.00000	93.69742
1722.00000	62.48651
1724.00000	64.19208
1726.00000	90.73158
1728.00000	71.84913
1730.00000	98.13316
1732.00000	108.98096
1734.00000	62.89796
1736.00000	21.72586
1738.00000	63.00405
1740.00000	72.04834
1742.00000	41.85736
1744.00000	57.31897
1746.00000	116.86134
1748.00000	49.87375
1750.00000	90.10626
1752.00000	160.94307
1754.00000	81.31281
1756.00000	88.19012
1758.00000	150.64850
1760.00000	138.82013
1762.00000	94.41545
1764.00000	152.66679
1766.00000	109.29973
1768.00000	53.34909
1770.00000	82.32740
1772.00000	130.96815
1774.00000	118.16009
1776.00000	124.48586
1778.00000	119.96851
1780.00000	65.76292
1782.00000	51.04984
1784.00000	85.32249
1786.00000	73.46195
1788.00000	50.00242
1790.00000	100.36655
1792.00000	54.12051
1794.00000	36.48166
1796.00000	81.49831
1798.00000	106.31705
1800.00000	107.48647
1802.00000	69.75861
1804.00000	52.32685
1806.00000	80.07851
1808.00000	96.54507
1810.00000	92.40962
1812.00000	58.87358
1814.00000	26.25228
1816.00000	41.66010
1818.00000	91.10498
1820.00000	87.07482
1822.00000	64.75777
1824.00000	81.28869
1826.00000	102.06995
1828.00000	119.70241
1830.00000	59.94611
1832.00000	27.98045
1834.00000	128.27460
1836.00000	66.14494
1838.00000	83.02828
1840.00000	120.09067
1842.00000	46.75230
1844.00000	117.78285
1846.00000	128.20758
1848.00000	77.96766
1850.00000	81.48815
1852.00000	126.60002
1854.00000	112.84417
1856.00000	107.90213
1858.00000	99.99021
1860.00000	48.40964
1862.00000	71.64864
1864.00000	113.85986
1866.00000	99.49984
1868.00000	90.22561
1870.00000	172.27667
1872.00000	92.18812
1874.00000	51.31959
1876.00000	107.11839
1878.00000	76.68795
1880.00000	79.68135
1882.00000	79.48443
1884.00000	98.75298
1886.00000	162.57336
1888.00000	170.82629
1890.00000	108.11623
1892.00000	103.75317
1894.00000	116.53660
1896.00000	19.29047
1898.00000	82.38087
1900.00000	115.85445
1902.00000	97.81091
1904.00000	137.42603
1906.00000	72.63583
1908.00000	38.26339
1910.00000	106.42378
1912.00000	136.62915
1914.00000	21.41389
1916.00000	116.17158
1918.00000	146.27895
1920.00000	44.85406
1922.00000	84.67906
1924.00000	145.73215
1926.00000	110.83368
1928.00000	145.78963
1930.00000	231.83823
1932.00000	40.58660
1934.00000	71.76607
1936.00000	112.89835
1938.00000	51.51675
1940.00000	145.96964
1942.00000	66.41562
1944.00000	18.79812
1946.00000	129.58395
1948.00000	201.67773
1950.00000	80.95693
1952.00000	149.77939
1954.00000	191.02431
1956.00000	91.05622
1958.00000	179.29927
1960.00000	103.75780
1962.00000	138.39798
1964.00000	192.43793
1966.00000	6.42395
1968.00000	129.49358
1970.00000	180.80630
1972.00000	142.31096
1974.00000	181.13730
1976.00000	121.57674
1978.00000	93.44717
1980.00000	111.96103
1982.00000	100.50661
1984.00000	64.77996
1986.00000	130.74432
1988.00000	90.11951
1990.00000	43.12928
1992.00000	118.89131
1994.00000	43.20493
1996.00000	80.89474
1998.00000	105.93933
2000.00000	16.85428
2002.00000	10.19421
2004.00000	7.91103
2006.00000	9.82036
2008.00000	18.94796
2010.00000	32.43968
2012.00000	26.73620
2014.00000	22.44406
2016.00000	40.89093
2018.00000	63.07289
2020.00000	46.29314
2022.00000	41.47016
2024.00000	54.76017
2026.00000	53.25143
2028.00000	31.47368
2030.00000	33.48271
2032.00000	53.13134
2034.00000	55.65468
2036.00000	32.86020
2038.00000	27.26689
2040.00000	29.85610
2042.00000	28.90307
2044.00000	25.58043
2046.00000	22.46273
2048.00000	39.03297
2050.00000	64.47252
2052.00000	74.70158
2054.00000	66.99487
2056.00000	65.97874
2058.00000	64.64010
2060.00000	62.96852
2062.00000	76.12904
2064.00000	94.15891
2066.00000	81.47905
2068.00000	58.67922
2070.00000	57.67238
2072.00000	51.26225
2074.00000	31.17406
2076.00000	51.29827
2078.00000	102.23219
2080.00000	96.43633
2082.00000	68.28002
2084.00000	63.75861
2086.00000	73.12753
2088.00000	64.99963
2090.00000	59.17675
2092.00000	49.92577
2094.00000	54.69798
2096.00000	72.80099
2098.00000	56.85508
2100.00000	36.55503
2102.00000	39.72242
2104.00000	49.60086
2106.00000	40.53399
2108.00000	56.81442
2110.00000	69.82502
2112.00000	62.70141
2114.00000	56.49807
2116.00000	57.84949
2118.00000	62.16760
2120.00000	73.35319
2122.00000	81.56672
2124.00000	60.19404
2126.00000	38.41835
2128.00000	46.84012
2130.00000	69.47358
2132.00000	65.51305
2134.00000	51.57152
2136.00000	55.88225
2138.00000	71.78925
2140.00000	79.09267
2142.00000	87.65067
2144.00000	89.40536
2146.00000	84.00001
2148.00000	76.77023
2150.00000	70.55681
2152.00000	77.06471
2154.00000	99.39256
2156.00000	107.02394
2158.00000	73.14324
2160.00000	52.12551
2162.00000	74.87373
2164.00000	90.44396
2166.00000	54.62970
2168.00000	34.05134
2170.00000	62.22829
2172.00000	88.31282
2174.00000	72.93571
2176.00000	62.97720
2178.00000	107.94418
2180.00000	120.74312
2182.00000	78.45290
2184.00000	73.20464
2186.00000	119.57177
2188.00000	101.61793
2190.00000	47.32358
2192.00000	52.66690
2194.00000	70.16465
2196.00000	63.08956
2198.00000	57.37008
2200.00000	66.00506
2202.00000	62.43368
2204.00000	79.17570
2206.00000	82.29688
2208.00000	64.07804
2210.00000	63.89572
2212.00000	75.49865
2214.00000	47.57685
2216.00000	12.19907
2218.00000	27.75503
2220.00000	60.76687
2222.00000	45.59612
2224.00000	28.33071
2226.00000	43.89280
2228.00000	44.50317
2230.00000	36.36571
2232.00000	25.78924
2234.00000	25.53868
2236.00000	43.44291
2238.00000	56.81123
2240.00000	58.81900
2242.00000	69.97471
2244.00000	86.82098
2246.00000	67.08839
2248.00000	52.06462
2250.00000	53.35347
2252.00000	51.38960
2254.00000	36.19610
2256.00000	28.49985
2258.00000	25.68830
2260.00000	34.45150
2262.00000	58.32933
2264.00000	63.40401
2266.00000	58.84354
2268.00000	75.81741
2270.00000	104.78699
2272.00000	88.11665
2274.00000	47.10447
2276.00000	45.12500
2278.00000	73.23962
2280.00000	62.35498
2282.00000	43.92453
2284.00000	64.79832
2286.00000	88.63126
2288.00000	61.08530
2290.00000	33.77078
2292.00000	52.89536
2294.00000	85.80676
2296.00000	81.45737
2298.00000	50.90218
2300.00000	51.45832
2302.00000	73.85493
2304.00000	78.13816
2306.00000	52.69070
2308.00000	32.39277
2310.00000	45.60663
2312.00000	57.43143
2314.00000	30.79676
2316.00000	15.33739
2318.00000	53.03549
2320.00000	76.42800
2322.00000	60.17965
2324.00000	90.90419
2326.00000	125.12833
2328.00000	106.45311
2330.00000	68.81740
2332.00000	77.27411
2334.00000	72.15621
2336.00000	36.90240
2338.00000	12.84564
2340.00000	37.39141
2342.00000	80.06944
2344.00000	74.83327
2346.00000	52.03256
2348.00000	71.08365
2350.00000	114.85694
2352.00000	95.44081
2354.00000	51.63300
2356.00000	46.82108
2358.00000	68.89874
2360.00000	54.94539
2362.00000	67.81290
2364.00000	90.76250
2366.00000	70.26160
2368.00000	50.17663
2370.00000	52.54849
2372.00000	60.98562
2374.00000	58.49007
2376.00000	53.75949
2378.00000	64.71282
2380.00000	100.43353
2382.00000	100.11886
2384.00000	30.14073
2386.00000	22.05659
2388.00000	67.54498
2390.00000	86.36784
2392.00000	64.62157
2394.00000	79.82306
2396.00000	79.78490
2398.00000	49.94164
2400.00000	28.97140
2402.00000	53.77339
2404.00000	103.38554
2406.00000	93.20840
2408.00000	52.79576
2410.00000	70.12187
2412.00000	93.06442
2414.00000	75.23015
2416.00000	69.83049
2418.00000	94.50353
2420.00000	59.29356
2422.00000	35.43221
2424.00000	61.91771
2426.00000	82.65056
2428.00000	39.43654
2430.00000	23.13220
2432.00000	31.10484
2434.00000	47.23898
2436.00000	68.29108
2438.00000	67.28690
2440.00000	65.21997
2442.00000	61.79154
2444.00000	46.14650
2446.00000	33.31738
2448.00000	47.10118
2450.00000	48.45251
2452.00000	33.28584
2454.00000	51.45203
2456.00000	88.98503
2458.00000	80.52399
2460.00000	52.68062
2462.00000	75.32108
2464.00000	116.14214
2466.00000	98.76892
2468.00000	53.36187
2470.00000	47.25135
2472.00000	77.47110
2474.00000	91.62165
2476.00000	65.35971
2478.00000	34.01599
2480.00000	45.44582
2482.00000	70.25111
2484.00000	63.28148
2486.00000	38.68402
2488.00000	39.71481
2490.00000	63.44560
2492.00000	69.90441
2494.00000	58.96546
2496.00000	46.71974
2498.00000	40.75038
2500.00000	67.24170
2502.00000	63.21524
2504.00000	38.23718
2506.00000	56.26159
2508.00000	51.78215
2510.00000	38.22729
2512.00000	47.59172
2514.00000	74.52362
2516.00000	84.55986
2518.00000	92.52952
2520.00000	97.56432
2522.00000	82.86797
2524.00000	48.18247
2526.00000	34.31749
2528.00000	70.81697
2530.00000	100.01070
2532.00000	71.99618
2534.00000	92.73987
2536.00000	138.56013
2538.00000	127.71243
2540.00000	64.03665
2542.00000	67.98494
2544.00000	134.01985
2546.00000	127.46666
2548.00000	49.00059
2550.00000	68.42003
2552.00000	158.07889
2554.00000	133.98195
2556.00000	46.83096
2558.00000	63.42012
2560.00000	64.88701
2562.00000	47.16903
2564.00000	72.81612
2566.00000	125.84072
2568.00000	108.29145
2570.00000	114.82899
2572.00000	105.06586
2574.00000	75.47545
2576.00000	103.58173
2578.00000	88.42620
2580.00000	74.41509
2582.00000	91.33746
2584.00000	87.59071
2586.00000	41.30597
2588.00000	80.87964
2590.00000	101.25500
2592.00000	36.44794
2594.00000	78.38403
2596.00000	147.97530
2598.00000	115.19753
2600.00000	48.34495
2602.00000	98.14835
2604.00000	111.18294
2606.00000	72.85118
2608.00000	68.26972
2610.00000	104.07031
2612.00000	64.41258
2614.00000	98.57842
2616.00000	148.86453
2618.00000	112.74213
2620.00000	90.38596
2622.00000	155.78484
2624.00000	144.99333
2626.00000	59.39923
2628.00000	79.29963
2630.00000	101.41895
2632.00000	39.71241
2634.00000	23.68793
2636.00000	119.05135
2638.00000	90.26094
2640.00000	74.23724
2642.00000	125.27237
2644.00000	140.82198
2646.00000	65.13671
2648.00000	93.60387
2650.00000	145.39531
2652.00000	108.70074
2654.00000	58.71337
2656.00000	134.12845
2658.00000	105.13007
2660.00000	33.14671
2662.00000	94.96524
2664.00000	125.97657
2666.00000	87.49544
2668.00000	115.87054
2670.00000	191.92525
2672.00000	127.12030
2674.00000	95.30787
2676.00000	109.49226
2678.00000	100.42233
2680.00000	62.53581
2682.00000	62.21257
2684.00000	76.24762
2686.00000	80.67036
2688.00000	80.70145
2690.00000	85.34843
2692.00000	87.29639
2694.00000	63.58767
2696.00000	63.64690
2698.00000	136.84917
2700.00000	106.77930
2702.00000	69.51546
2704.00000	109.17798
2706.00000	138.09012
2708.00000	54.03835
2710.00000	6.92856
2712.00000	30.37822
2714.00000	73.39143
2716.00000	138.21326
2718.00000	119.96363
2720.00000	83.99944
2722.00000	111.37733
2724.00000	137.85245
2726.00000	55.45970
2728.00000	79.94503
2730.00000	152.99414
2732.00000	78.20684
2734.00000	68.92809
2736.00000	134.89925
2738.00000	130.37491
2740.00000	84.67241
2742.00000	203.44469
2744.00000	185.09793
2746.00000	63.47657
2748.00000	71.48045
2750.00000	223.12718
2752.00000	179.87651
2754.00000	128.74849
2756.00000	181.00333
2758.00000	176.13383
2760.00000	51.48488
2762.00000	194.10199
2764.00000	283.97116
2766.00000	121.75141
2768.00000	197.47386
2770.00000	209.38152
2772.00000	120.99004
2774.00000	113.49859
2776.00000	208.14598
2778.00000	139.12836
2780.00000	105.00906
2782.00000	168.52391
2784.00000	180.22557
2786.00000	136.79062
2788.00000	194.99287
2790.00000	182.43932
2792.00000	72.27785
2794.00000	157.88676
2796.00000	179.83546
2798.00000	93.55773
2800.00000	67.93849
2802.00000	142.96228
2804.00000	44.19489
2806.00000	60.01225
2808.00000	143.38692
2810.00000	86.51170
2812.00000	104.90498
2814.00000	210.88748
2816.00000	141.00986
2818.00000	8.74524
2820.00000	209.34441
2822.00000	166.92871
2824.00000	40.83295
2826.00000	107.36020
2828.00000	212.73396
2830.00000	79.95347
2832.00000	193.09747
2834.00000	302.40732
2836.00000	107.32821
2838.00000	201.81677
2840.00000	268.24521
2842.00000	181.13402
2844.00000	133.10504
2846.00000	212.60539
2848.00000	86.84409
2850.00000	17.86573
2852.00000	127.19967
2854.00000	186.74178
2856.00000	133.18552
2858.00000	110.83365
2860.00000	141.18164
2862.00000	156.19527
2864.00000	150.00139
2866.00000	110.39790
2868.00000	92.37663
2870.00000	84.48167
2872.00000	37.47077
2874.00000	90.06264
2876.00000	133.20329
2878.00000	137.34479
2880.00000	165.30634
2882.00000	136.66162
2884.00000	84.52840
2886.00000	115.38616
2888.00000	174.55760
2890.00000	78.05074
2892.00000	92.46031
2894.00000	157.33514
2896.00000	153.98930
2898.00000	167.75732
2900.00000	264.96411
2902.00000	210.22774
2904.00000	141.01196
2906.00000	258.83109
2908.00000	213.05888
2910.00000	185.59225
2912.00000	172.70981
2914.00000	124.52423
2916.00000	186.86040
2918.00000	254.56891
2920.00000	195.18414
2922.00000	139.06355
2924.00000	239.05565
2926.00000	161.09337
2928.00000	142.20616
2930.00000	217.09480
2932.00000	185.21512
2934.00000	97.08272
2936.00000	42.51284
2938.00000	53.27557
2940.00000	119.23340
2942.00000	182.61237
2944.00000	109.32189
2946.00000	183.48878
2948.00000	260.44571
2950.00000	45.18613
2952.00000	190.03079
2954.00000	209.79440
2956.00000	29.96147
2958.00000	36.50020
2960.00000	157.59125
2962.00000	107.93031
2964.00000	121.72588
2966.00000	223.51172
2968.00000	52.56370
2970.00000	117.01522
2972.00000	228.46278
2974.00000	186.86394
2976.00000	134.78601
2978.00000	122.55047
2980.00000	173.31638
2982.00000	230.18689
2984.00000	245.82347
2986.00000	253.50224
2988.00000	197.52141
2990.00000	228.11075
2992.00000	323.30347
2994.00000	241.18826
2996.00000	169.72787
2998.00000	193.34781
3000.00000	258.13074
3002.00000	285.51907
3004.00000	262.15176
3006.00000	193.45746
3008.00000	231.92076
3010.00000	348.76730
3012.00000	254.21942
3014.00000	274.28561
3016.00000	276.96201
3018.00000	153.75050
3020.00000	154.84822
3022.00000	296.12604
3024.00000	309.85287
3026.00000	290.00647
3028.00000	399.86978
3030.00000	273.11630
3032.00000	273.36426
3034.00000	306.12518
3036.00000	197.46373
3038.00000	240.09573
3040.00000	254.52902
3042.00000	285.87479
3044.00000	305.07864
3046.00000	231.90526
3048.00000	434.53473
3050.00000	397.37933
3052.00000	264.69653
3054.00000	405.10257
3056.00000	172.53575
3058.00000	86.35614
3060.00000	175.08620
3062.00000	169.41200
3064.00000	198.85190
3066.00000	354.14392
3068.00000	427.72675
3070.00000	259.85123
3072.00000	50.23952
3074.00000	197.25670
3076.00000	182.82428
3078.00000	-8.03742
3080.00000	54.17270
3082.00000	239.13316
3084.00000	187.08702
3086.00000	104.45917
3088.00000	168.78343
3090.00000	135.89687
3092.00000	185.01743
3094.00000	155.59892
3096.00000	11.97302
3098.00000	-8.62388
3100.00000	109.96815
3102.00000	133.16150
3104.00000	160.37732
3106.00000	286.35672
3108.00000	206.14209
3110.00000	269.97247
3112.00000	358.12231
3114.00000	265.37372
3116.00000	206.24303
3118.00000	349.08142
3120.00000	326.10550
3122.00000	235.35167
3124.00000	437.03522
3126.00000	451.70688
3128.00000	458.47650
3130.00000	503.23795
3132.00000	363.72351
3134.00000	70.80361
3136.00000	266.51981
3138.00000	423.34509
3140.00000	244.18111
3142.00000	362.98569
3144.00000	516.59259
3146.00000	397.16965
3148.00000	330.73599
3150.00000	531.37695
3152.00000	175.10158
3154.00000	87.97246
3156.00000	385.04575
3158.00000	456.07803
3160.00000	253.63730
3162.00000	397.78540
3164.00000	509.79095
3166.00000	390.90195
3168.00000	457.02206
3170.00000	279.86118
3172.00000	230.98820
3174.00000	341.19348
3176.00000	320.71432
3178.00000	452.79037
3180.00000	421.66327
3182.00000	427.10678
3184.00000	523.22491
3186.00000	209.76746
3188.00000	295.00513
3190.00000	272.62979
3192.00000	51.65130
3194.00000	315.72153
3196.00000	216.28670
3198.00000	206.16710
3200.00000	393.05103
