369.024689 30068.000000
371.295044 29469.000000
373.564575 29897.000000
375.833252 29915.000000
378.101074 28979.000000
380.368073 29400.000000
382.634186 29109.000000
384.899475 29612.000000
387.163910 30216.000000
389.427490 29868.000000
391.690247 30865.000000
393.952118 32595.000000
396.213196 33023.000000
398.473389 33846.000000
400.732758 34313.000000
402.991272 34100.000000
405.248932 34404.000000
407.505768 33515.000000
409.761749 34006.000000
412.016876 34815.000000
414.271179 35199.000000
416.524628 35345.000000
418.777252 36732.000000
421.029022 36506.000000
423.279938 36302.000000
425.530029 35648.000000
427.779297 35280.000000
430.027679 34472.000000
432.275269 33818.000000
434.522003 31749.000000
436.767883 31912.000000
439.012939 30996.000000
441.257141 30304.000000
443.500519 30394.000000
445.743042 29840.000000
447.984741 29576.000000
450.225616 29118.000000
452.465637 29915.000000
454.704803 30292.000000
456.943176 30088.000000
459.180664 30374.000000
461.417358 30607.000000
463.653198 30090.000000
465.888214 29937.000000
468.122375 29488.000000
470.355713 29816.000000
472.588226 28724.000000
474.819916 28805.000000
477.050751 28739.000000
479.280762 29397.000000
481.509949 30691.000000
483.738281 32191.000000
485.965790 33690.000000
488.192474 35732.000000
490.418335 37603.000000
492.643341 38067.000000
494.867523 37477.000000
497.090881 37771.000000
499.313416 37843.000000
501.535126 36628.000000
503.755981 35792.000000
505.976044 35500.000000
508.195251 36035.000000
510.413635 37446.000000
512.631226 38764.000000
514.847961 39657.000000
517.063843 40355.000000
519.278931 41451.000000
521.493164 43471.000000
523.706604 43497.000000
525.919189 42861.000000
528.130981 38881.000000
530.341919 35068.000000
532.552063 31222.000000
534.761353 28935.000000
536.969849 27754.000000
539.177490 26339.000000
541.384338 26159.000000
543.590332 26226.000000
545.795532 26695.000000
547.999878 26444.000000
550.203430 25691.000000
552.406189 25104.000000
554.608093 24978.000000
556.809143 25477.000000
559.009399 25258.000000
561.208862 24665.000000
563.407471 24655.000000
565.605286 25731.000000
567.802307 24496.000000
569.998474 24847.000000
572.193787 24745.000000
574.388306 25102.000000
576.582031 24904.000000
578.774963 24315.000000
580.967041 24393.000000
583.158264 24776.000000
585.348694 24433.000000
587.538330 24966.000000
589.727173 25299.000000
591.915161 24739.000000
594.102356 24056.000000
596.288696 25342.000000
598.474304 24495.000000
600.658997 24753.000000
602.842957 25238.000000
605.026062 25074.000000
607.208374 24441.000000
609.389832 24335.000000
611.570557 24585.000000
613.750427 24624.000000
615.929443 25122.000000
618.107666 25388.000000
620.285156 25978.000000
622.461731 24287.000000
624.637573 25269.000000
626.812561 25185.000000
628.986755 25201.000000
631.160156 24954.000000
633.332703 25239.000000
635.504456 24419.000000
637.675415 24660.000000
639.845581 25191.000000
642.014954 25122.000000
644.183472 24808.000000
646.351196 25188.000000
648.518127 24927.000000
650.684265 25259.000000
652.849548 24667.000000
655.014038 25216.000000
657.177734 24924.000000
659.340637 24895.000000
661.502747 25181.000000
663.664001 24741.000000
665.824524 25094.000000
667.984192 25059.000000
670.143066 24922.000000
672.301147 24316.000000
674.458374 24203.000000
676.614868 25402.000000
678.770508 25295.000000
680.925415 24587.000000
683.079468 25815.000000
685.232727 24474.000000
687.385193 25990.000000
689.536865 25258.000000
691.687744 25675.000000
693.837769 26027.000000
695.987061 26279.000000
698.135498 25917.000000
700.283142 26036.000000
702.430054 26117.000000
704.576111 25577.000000
706.721375 25973.000000
708.865845 25789.000000
711.009521 26420.000000
713.152405 26262.000000
715.294495 26514.000000
717.435791 26763.000000
719.576294 27281.000000
721.716003 28054.000000
723.854858 28584.000000
725.992981 29339.000000
728.130310 29156.000000
730.266846 29147.000000
732.402527 30114.000000
734.537476 29909.000000
736.671631 29180.000000
738.804993 29107.000000
740.937500 28840.000000
743.069275 28341.000000
745.200256 28096.000000
747.330444 27890.000000
749.459839 28178.000000
751.588440 27560.000000
753.716248 26810.000000
755.843262 25660.000000
757.969482 25669.000000
760.094910 25932.000000
762.219543 25751.000000
764.343384 25346.000000
766.466492 25874.000000
768.588745 24827.000000
770.710266 25113.000000
772.830994 25899.000000
774.950867 24685.000000
777.070007 25797.000000
779.188354 25295.000000
781.305908 25414.000000
783.422729 25646.000000
785.538696 25988.000000
787.653870 25206.000000
789.768311 25879.000000
791.881958 25956.000000
793.994812 25357.000000
796.106873 25626.000000
798.218140 25854.000000
800.328613 25412.000000
802.438354 25470.000000
804.547302 25810.000000
806.655457 25354.000000
808.762817 25703.000000
810.869385 26301.000000
812.975159 25545.000000
815.080200 25712.000000
817.184448 25565.000000
819.287903 26355.000000
821.390564 25717.000000
823.492493 25773.000000
825.593628 25829.000000
827.693970 26267.000000
829.793518 26028.000000
831.892273 25514.000000
833.990295 25783.000000
836.087524 25555.000000
838.183960 26058.000000
840.279663 25588.000000
842.374573 26495.000000
844.468689 26248.000000
846.562012 25579.000000
848.654602 25408.000000
850.746338 25385.000000
852.837402 25310.000000
854.927612 25375.000000
857.017090 25305.000000
859.105774 25464.000000
861.193665 25531.000000
863.280823 25871.000000
865.367188 26021.000000
867.452759 25739.000000
869.537598 25883.000000
871.621643 26407.000000
873.704956 26422.000000
875.787415 25356.000000
877.869141 26330.000000
879.950134 25945.000000
882.030334 25802.000000
884.109741 25757.000000
886.188354 26224.000000
888.266235 26378.000000
890.343384 26231.000000
892.419678 25968.000000
894.495239 26264.000000
896.570068 25207.000000
898.644104 26040.000000
900.717346 25734.000000
902.789856 25999.000000
904.861572 26291.000000
906.932556 26227.000000
909.002747 25842.000000
911.072144 25854.000000
913.140808 26186.000000
915.208679 26280.000000
917.275818 26352.000000
919.342163 26415.000000
921.407776 26738.000000
923.472595 26518.000000
925.536682 26862.000000
927.599976 26974.000000
929.662537 26669.000000
931.724304 26966.000000
933.785278 27123.000000
935.845520 26719.000000
937.905029 26694.000000
939.963745 26192.000000
942.021667 26325.000000
944.078918 26680.000000
946.135315 26995.000000
948.190979 26699.000000
950.245911 26629.000000
952.300049 26919.000000
954.353455 26834.000000
956.406067 27357.000000
958.457947 27096.000000
960.509033 26963.000000
962.559387 26860.000000
964.609009 27238.000000
966.657837 27057.000000
968.705933 26422.000000
970.753235 26897.000000
972.799805 27117.000000
974.845581 26608.000000
976.890625 26621.000000
978.934937 26693.000000
980.978455 26429.000000
983.021240 26281.000000
985.063232 26616.000000
987.104492 26664.000000
989.145020 26497.000000
991.184753 25872.000000
993.223755 27068.000000
995.262024 27002.000000
997.299500 26623.000000
999.336243 26963.000000
1001.372253 27259.000000
1003.407471 26732.000000
1005.441956 27221.000000
1007.475647 26291.000000
1009.508606 27064.000000
1011.540833 26529.000000
1013.572327 27694.000000
1015.603027 27141.000000
1017.632996 26966.000000
1019.662231 26478.000000
1021.690674 27275.000000
1023.718384 26831.000000
1025.745361 26661.000000
1027.771606 27144.000000
1029.796997 27574.000000
1031.821777 27090.000000
1033.845703 27942.000000
1035.868896 28405.000000
1037.891357 27104.000000
1039.913086 27307.000000
1041.934082 27558.000000
1043.954346 27931.000000
1045.973755 27649.000000
1047.992554 28103.000000
1050.010498 28154.000000
1052.027710 28399.000000
1054.044312 27528.000000
1056.060059 28547.000000
1058.075073 28096.000000
1060.089233 28304.000000
1062.102783 28117.000000
1064.115601 28560.000000
1066.127563 28005.000000
1068.138916 28329.000000
1070.149414 29638.000000
1072.159180 30357.000000
1074.168213 30176.000000
1076.176514 30096.000000
1078.184082 31091.000000
1080.190918 32273.000000
1082.197021 33586.000000
1084.202393 34599.000000
1086.207031 37146.000000
1088.210815 39630.000000
1090.213989 43965.000000
1092.216309 48013.000000
1094.218018 55104.000000
1096.218872 62385.000000
1098.218994 70221.000000
1100.218506 75955.000000
1102.217163 80699.000000
1104.215088 81721.000000
1106.212280 77498.000000
1108.208740 69914.000000
1110.204468 60221.000000
1112.199463 50428.000000
1114.193726 42202.000000
1116.187256 37553.000000
1118.180054 33758.000000
1120.172119 32603.000000
1122.163452 30681.000000
1124.153931 30754.000000
1126.143799 30159.000000
1128.132935 29246.000000
1130.121338 29617.000000
1132.108887 29117.000000
1134.095825 28546.000000
1136.082031 28447.000000
1138.067383 28616.000000
1140.052124 28986.000000
1142.036133 28465.000000
1144.019287 28748.000000
1146.001831 28105.000000
1147.983643 29322.000000
1149.964600 28918.000000
1151.944946 28949.000000
1153.924561 28790.000000
1155.903320 28706.000000
1157.881470 28576.000000
1159.858887 28289.000000
1161.835449 28170.000000
1163.811401 28763.000000
1165.786621 28481.000000
1167.761108 28211.000000
1169.734863 27789.000000
1171.707764 27760.000000
1173.680054 28099.000000
1175.651611 28661.000000
1177.622437 28188.000000
1179.592529 28508.000000
1181.561890 28109.000000
1183.530518 28243.000000
1185.498535 27961.000000
1187.465698 28226.000000
1189.432129 28074.000000
1191.397827 27675.000000
1193.362915 28928.000000
1195.327148 28300.000000
1197.290649 28250.000000
1199.253540 28093.000000
1201.215698 28236.000000
1203.177002 28359.000000
1205.137695 28747.000000
1207.097656 28414.000000
1209.056885 28133.000000
1211.015381 28906.000000
1212.973145 28076.000000
1214.930176 28767.000000
1216.886475 28302.000000
1218.842041 29265.000000
1220.796875 28105.000000
1222.751099 28620.000000
1224.704468 28818.000000
1226.657227 29035.000000
1228.609253 29088.000000
1230.560547 28301.000000
1232.511108 28884.000000
1234.460938 28265.000000
1236.410034 28499.000000
1238.358398 28696.000000
1240.306030 27374.000000
1242.253052 29126.000000
1244.199219 29119.000000
1246.144775 28731.000000
1248.089600 28872.000000
1250.033691 28576.000000
1251.977051 28526.000000
1253.919678 28851.000000
1255.861572 29000.000000
1257.802856 28293.000000
1259.743408 29397.000000
1261.683105 29122.000000
1263.622192 29058.000000
1265.560547 28881.000000
1267.498169 29465.000000
1269.435181 28757.000000
1271.371338 28979.000000
1273.306885 29073.000000
1275.241577 29233.000000
1277.175659 28215.000000
1279.109009 28796.000000
1281.041626 29352.000000
1282.973633 29063.000000
1284.904785 28860.000000
1286.835327 29119.000000
1288.765137 28841.000000
1290.694214 28907.000000
1292.622559 29362.000000
1294.550171 29541.000000
1296.477173 29208.000000
1298.403442 29248.000000
1300.328979 29329.000000
1302.253784 29362.000000
1304.177856 28777.000000
1306.101196 29478.000000
1308.023926 29305.000000
1309.945923 30091.000000
1311.867188 29469.000000
1313.787720 29513.000000
1315.707642 29799.000000
1317.626709 29457.000000
1319.545166 28916.000000
1321.462891 29844.000000
1323.379883 29859.000000
1325.296265 29880.000000
1327.211792 30338.000000
1329.126709 30193.000000
1331.040894 29728.000000
1332.954468 29937.000000
1334.867188 29877.000000
1336.779297 29790.000000
1338.690674 29790.000000
1340.601318 29377.000000
1342.511353 30181.000000
1344.420532 29141.000000
1346.329102 30270.000000
1348.236938 30894.000000
1350.144165 29730.000000
1352.050537 29951.000000
1353.956299 28976.000000
1355.861328 30314.000000
1357.765747 29749.000000
1359.669312 29996.000000
1361.572266 30329.000000
1363.474487 29801.000000
1365.376099 29867.000000
1367.276855 30006.000000
1369.177002 30385.000000
1371.076416 29771.000000
1372.975220 30378.000000
1374.873169 30121.000000
1376.770508 29886.000000
1378.667114 30140.000000
1380.563110 29990.000000
1382.458374 29724.000000
1384.352905 30225.000000
1386.246704 30618.000000
1388.139893 30597.000000
1390.032227 30105.000000
1391.924072 29636.000000
1393.815063 30638.000000
1395.705444 29984.000000
1397.595093 30391.000000
1399.484009 30391.000000
1401.372314 30418.000000
1403.259888 30227.000000
1405.146729 29734.000000
1407.032959 29805.000000
1408.918335 29777.000000
1410.803223 30720.000000
1412.687256 30133.000000
1414.570679 30105.000000
1416.453369 30529.000000
1418.335327 29506.000000
1420.216675 30489.000000
1422.097290 30436.000000
1423.977173 30401.000000
1425.856445 30309.000000
1427.734985 30523.000000
1429.612793 30047.000000
1431.489990 30425.000000
1433.366455 31433.000000
1435.242188 30470.000000
1437.117310 31149.000000
1438.991699 30792.000000
1440.865356 30976.000000
1442.738403 31617.000000
1444.610718 31024.000000
1446.482422 31650.000000
1448.353271 32000.000000
1450.223511 33039.000000
1452.093140 32077.000000
1453.962036 31024.000000
1455.830200 31736.000000
1457.697632 31256.000000
1459.564453 30257.000000
1461.430664 30436.000000
1463.296021 31437.000000
1465.160767 31418.000000
1467.024902 31197.000000
1468.888184 31102.000000
1470.750854 30857.000000
1472.612915 30979.000000
1474.474243 30601.000000
1476.334839 31150.000000
1478.194824 31587.000000
1480.054077 31504.000000
1481.912598 31308.000000
1483.770508 30722.000000
1485.627686 31223.000000
1487.484253 30709.000000
1489.340088 30746.000000
1491.195190 31477.000000
1493.049683 31514.000000
1494.903442 31552.000000
1496.756592 30905.000000
1498.609009 30970.000000
1500.460693 30890.000000
1502.311768 30959.000000
1504.162109 31225.000000
1506.011841 31362.000000
1507.860840 31339.000000
1509.709229 30751.000000
1511.556885 30918.000000
1513.403809 30890.000000
1515.250122 31355.000000
1517.095703 30965.000000
1518.940674 31566.000000
1520.784912 31814.000000
1522.628418 30908.000000
1524.471313 31240.000000
1526.313599 31760.000000
1528.155029 30943.000000
1529.995972 30689.000000
1531.836060 31588.000000
1533.675659 30948.000000
1535.514404 31553.000000
1537.352539 31205.000000
1539.190063 31506.000000
1541.026855 30316.000000
1542.862915 31329.000000
1544.698364 31592.000000
1546.533081 31660.000000
1548.367188 31464.000000
1550.200684 31335.000000
1552.033325 30533.000000
1553.865356 31293.000000
1555.696777 31042.000000
1557.527466 31258.000000
1559.357544 31659.000000
1561.186890 30970.000000
1563.015625 31786.000000
1564.843628 31907.000000
1566.670898 32335.000000
1568.497559 32361.000000
1570.323608 31395.000000
1572.148926 31988.000000
1573.973633 30966.000000
1575.797607 31835.000000
1577.620850 31913.000000
1579.443481 31932.000000
1581.265503 32375.000000
1583.086792 31496.000000
1584.907349 31916.000000
1586.727295 31448.000000
1588.546631 32144.000000
1590.365234 31564.000000
1592.183105 31986.000000
1594.000366 32029.000000
1595.817017 30934.000000
1597.632935 31661.000000
1599.448242 31713.000000
1601.262817 32615.000000
1603.076782 31656.000000
1604.890015 31669.000000
1606.702637 31855.000000
1608.514526 31188.000000
1610.325806 32056.000000
1612.136353 32240.000000
1613.946289 31771.000000
1615.755493 31577.000000
1617.564087 31784.000000
1619.372070 31808.000000
1621.179321 31936.000000
1622.985840 31759.000000
1624.791870 31359.000000
1626.597046 32044.000000
1628.401733 32254.000000
1630.205566 32567.000000
1632.008911 32520.000000
1633.811523 32016.000000
1635.613403 32310.000000
1637.414673 32067.000000
1639.215332 31733.000000
1641.015259 32539.000000
1642.814575 32595.000000
1644.613159 32081.000000
1646.411133 32513.000000
1648.208496 32439.000000
1650.005127 32347.000000
1651.801025 31756.000000
1653.596313 32372.000000
1655.390991 32185.000000
1657.185059 31857.000000
1658.978394 32379.000000
1660.770996 32244.000000
1662.562988 32121.000000
1664.354370 32251.000000
1666.145020 32654.000000
1667.935059 32675.000000
1669.724487 32546.000000
1671.513184 32622.000000
1673.301270 32025.000000
1675.088623 32477.000000
1676.875366 32958.000000
1678.661499 33057.000000
1680.446899 32838.000000
1682.231689 32379.000000
1684.015747 33141.000000
1685.799194 33007.000000
1687.582031 32017.000000
1689.364136 32784.000000
1691.145630 33324.000000
1692.926392 33060.000000
1694.706543 33232.000000
1696.486084 31992.000000
1698.265015 32689.000000
1700.043213 33609.000000
1701.820679 33338.000000
1703.597656 33240.000000
1705.373901 33015.000000
1707.149414 33036.000000
1708.924316 32467.000000
1710.698608 32073.000000
1712.472290 33333.000000
1714.245239 32312.000000
1716.017578 32753.000000
1717.789185 32173.000000
1719.560181 31847.000000
1721.330566 31946.000000
1723.100342 31737.000000
1724.869385 31859.000000
1726.637695 32145.000000
1728.405518 32002.000000
1730.172607 32830.000000
1731.939087 31669.000000
1733.704834 31884.000000
1735.469971 32046.000000
1737.234497 32448.000000
1738.998413 32263.000000
1740.761597 32902.000000
1742.524048 32203.000000
1744.286011 32056.000000
1746.047241 31756.000000
1747.807861 32091.000000
1749.567871 31830.000000
1751.327148 32161.000000
1753.085815 32749.000000
1754.843750 32013.000000
1756.601196 32681.000000
1758.357910 32793.000000
1760.113892 32860.000000
1761.869385 33404.000000
1763.624146 33527.000000
1765.378296 33299.000000
1767.131714 33297.000000
1768.884644 32934.000000
1770.636719 33083.000000
1772.388306 33740.000000
1774.139282 32496.000000
1775.889526 32567.000000
1777.639038 32194.000000
1779.388062 31319.000000
1781.136353 31841.000000
1782.884033 32255.000000
1784.631104 32117.000000
1786.377441 32326.000000
1788.123291 31245.000000
1789.868286 31475.000000
1791.612793 31766.000000
1793.356567 31927.000000
1795.099731 31793.000000
1796.842285 31884.000000
1798.584229 32142.000000
1800.325439 32519.000000
1802.066040 32228.000000
1803.806030 32084.000000
1805.545410 31951.000000
1807.284058 32117.000000
1809.022095 32523.000000
1810.759521 32106.000000
1812.496216 32413.000000
1814.232422 31715.000000
1815.967896 32300.000000
1817.702759 32893.000000
1819.436890 32711.000000
1821.170532 31812.000000
1822.903442 31990.000000
1824.635742 32509.000000
1826.367432 31316.000000
1828.098389 32577.000000
1829.828735 31813.000000
1831.558472 32038.000000
1833.287598 32446.000000
1835.016113 32293.000000
1836.743896 31305.000000
1838.471069 32004.000000
1840.197632 32188.000000
1841.923584 31865.000000
1843.648804 32591.000000
1845.373535 32602.000000
1847.097534 31592.000000
1848.820923 32911.000000
1850.543579 31950.000000
1852.265747 32685.000000
1853.987183 31774.000000
1855.708008 32308.000000
1857.428223 32828.000000
1859.147827 32068.000000
1860.866699 32440.000000
1862.585083 32075.000000
1864.302734 32056.000000
1866.019775 32305.000000
1867.736206 31662.000000
1869.451904 32332.000000
1871.167114 32464.000000
1872.881592 32731.000000
1874.595459 32646.000000
1876.308716 32277.000000
1878.021240 32274.000000
1879.733276 31998.000000
1881.444580 32356.000000
1883.155396 32888.000000
1884.865479 32459.000000
1886.574829 32862.000000
1888.283691 32866.000000
1889.991943 32486.000000
1891.699463 33032.000000
1893.406372 32034.000000
1895.112671 32461.000000
1896.818359 32419.000000
1898.523438 32827.000000
1900.227905 32792.000000
1901.931641 32650.000000
1903.634888 31829.000000
1905.337402 33406.000000
1907.039307 32257.000000
1908.740601 32531.000000
1910.441284 33246.000000
1912.141235 33335.000000
1913.840698 33189.000000
1915.539429 32646.000000
1917.237549 33278.000000
1918.935059 32912.000000
1920.631958 32663.000000
1922.328247 32645.000000
1924.023926 32253.000000
1925.718994 33030.000000
1927.413330 32627.000000
1929.107056 33100.000000
1930.800293 32960.000000
1932.492798 32205.000000
1934.184692 32695.000000
1935.875977 32997.000000
1937.566650 32754.000000
1939.256592 33073.000000
1940.946045 32593.000000
1942.634766 32410.000000
1944.322998 33046.000000
1946.010498 32916.000000
1947.697388 32188.000000
1949.383789 33150.000000
1951.069458 33375.000000
1952.754395 32645.000000
1954.438843 32762.000000
1956.122681 33454.000000
1957.805908 33306.000000
1959.488403 33603.000000
1961.170410 32250.000000
1962.851685 32717.000000
1964.532349 33662.000000
1966.212524 33794.000000
1967.891968 32771.000000
1969.570801 32087.000000
1971.249023 33615.000000
1972.926636 33478.000000
1974.603638 33649.000000
1976.280029 33680.000000
1977.955688 33854.000000
1979.630859 33154.000000
1981.305420 32878.000000
1982.979248 33545.000000
1984.652588 34506.000000
1986.325195 34265.000000
1987.997314 33124.000000
1989.668701 33703.000000
1991.339478 32342.000000
1993.009644 33516.000000
1994.679321 33916.000000
1996.348267 33375.000000
1998.016602 33383.000000
1999.684326 33136.000000
2001.351440 33621.000000
2003.017944 33816.000000
2004.683838 34166.000000
2006.349121 33553.000000
2008.013794 33740.000000
2009.677856 34520.000000
2011.341187 34293.000000
2013.004028 33233.000000
2014.666260 33685.000000
2016.327881 34433.000000
2017.988770 38175.000000
2019.649170 34072.000000
2021.308960 34641.000000
2022.968018 34334.000000
2024.626587 33421.000000
2026.284546 33260.000000
2027.941772 34119.000000
2029.598511 33820.000000
2031.254517 33412.000000
2032.910034 33356.000000
2034.564941 34210.000000
2036.219116 33236.000000
2037.872803 34432.000000
2039.525757 33338.000000
2041.178223 34372.000000
2042.829956 34362.000000
2044.481201 34784.000000
2046.131836 34045.000000
2047.781738 34218.000000
2049.431152 34942.000000
2051.079834 34963.000000
2052.728027 33670.000000
2054.375488 34154.000000
2056.022461 33715.000000
2057.668701 34385.000000
2059.314453 34046.000000
2060.959717 33898.000000
2062.604248 34901.000000
2064.248047 34763.000000
2065.891357 33749.000000
2067.533936 34355.000000
2069.176025 34311.000000
2070.817627 34059.000000
2072.458496 34718.000000
2074.098633 33956.000000
2075.738281 34287.000000
2077.377441 35414.000000
2079.015869 34478.000000
2080.653564 33502.000000
2082.290771 34566.000000
2083.927490 33503.000000
2085.563477 34393.000000
2087.198975 34520.000000
2088.833740 33396.000000
2090.468018 34397.000000
2092.101562 34208.000000
2093.734619 33744.000000
2095.366943 35825.000000
2096.998779 34536.000000
2098.629883 34986.000000
2100.260498 34791.000000
2101.890381 34674.000000
2103.519775 35553.000000
2105.148682 34712.000000
2106.776855 34958.000000
2108.404297 33966.000000
2110.031494 34667.000000
2111.657715 35481.000000
2113.283447 34754.000000
2114.908691 34955.000000
2116.533203 34807.000000
2118.157227 34653.000000
2119.780518 35455.000000
2121.403320 35570.000000
2123.025635 34600.000000
2124.647217 35620.000000
2126.268066 34276.000000
2127.888428 34278.000000
2129.508301 35984.000000
2131.127441 36691.000000
2132.746094 34855.000000
2134.364014 35626.000000
2135.981445 36368.000000
2137.598145 35622.000000
2139.214355 35979.000000
2140.830078 35866.000000
2142.445068 36580.000000
2144.059326 35135.000000
2145.673096 34001.000000
2147.286377 36082.000000
2148.898926 35889.000000
2150.510986 35671.000000
2152.122314 35921.000000
2153.733154 35883.000000
2155.343506 35155.000000
2156.953125 35377.000000
2158.562012 35539.000000
2160.170410 35408.000000
2161.778320 35982.000000
2163.385498 35676.000000
2164.992188 35558.000000
2166.598389 35367.000000
2168.203857 35326.000000
2169.808594 36331.000000
2171.412842 35226.000000
2173.016602 35630.000000
2174.619629 35914.000000
2176.222168 35441.000000
2177.824219 35678.000000
2179.425537 36606.000000
2181.026123 35789.000000
2182.626221 35924.000000
2184.225830 36156.000000
2185.824707 35613.000000
2187.423096 35836.000000
2189.020996 36128.000000
2190.618164 36670.000000
2192.214600 36650.000000
2193.810547 36025.000000
2195.406006 36167.000000
2197.000732 35555.000000
2198.594971 36574.000000
2200.188721 36401.000000
2201.781738 36415.000000
2203.374268 35593.000000
2204.966064 35942.000000
2206.557373 36291.000000
2208.147949 36912.000000
2209.738037 36546.000000
2211.327637 36265.000000
2212.916504 35406.000000
2214.504883 36276.000000
2216.092529 36818.000000
2217.679688 36441.000000
2219.266357 37356.000000
2220.852295 36679.000000
2222.437744 35970.000000
2224.022461 35764.000000
2225.606689 36508.000000
2227.190430 36593.000000
2228.773438 36220.000000
2230.355957 36324.000000
2231.937744 35321.000000
2233.519043 36537.000000
2235.099609 37353.000000
2236.679932 35850.000000
2238.259277 36416.000000
2239.838379 36644.000000
2241.416748 37018.000000
2242.994385 36771.000000
2244.571533 36595.000000
2246.148193 35726.000000
2247.724365 36785.000000
2249.299805 37359.000000
2250.874512 37867.000000
2252.448975 37106.000000
2254.022461 36569.000000
2255.595703 37347.000000
2257.168213 37434.000000
2258.740234 36833.000000
2260.311523 37678.000000
2261.882324 36774.000000
2263.452393 37023.000000
2265.021973 37946.000000
2266.591064 38582.000000
2268.159668 36761.000000
2269.727539 37181.000000
2271.294678 36657.000000
2272.861328 36820.000000
2274.427490 37227.000000
2275.993164 37396.000000
2277.558105 37512.000000
2279.122559 36555.000000
2280.686279 37119.000000
2282.249512 37712.000000
2283.812256 36448.000000
2285.374268 37162.000000
2286.935791 37044.000000
2288.496582 36907.000000
2290.056885 35375.000000
2291.616699 35963.000000
2293.176025 36947.000000
2294.734619 37213.000000
2296.292480 37287.000000
2297.849854 37247.000000
2299.406738 37913.000000
2300.963135 37653.000000
2302.518799 36734.000000
2304.073975 37885.000000
2305.628418 37117.000000
2307.182617 37081.000000
2308.735840 36614.000000
2310.288818 36922.000000
2311.841064 37292.000000
2313.392578 37189.000000
2314.943848 37054.000000
2316.494385 37553.000000
2318.044189 36986.000000
2319.593750 37240.000000
2321.142334 36672.000000
2322.690674 37453.000000
2324.238281 37391.000000
2325.785400 38340.000000
2327.332031 38122.000000
2328.877930 37800.000000
2330.423096 37296.000000
2331.968018 38208.000000
2333.512207 37818.000000
2335.055908 38112.000000
2336.598877 37645.000000
2338.141357 38081.000000
2339.683350 36108.000000
2341.224609 37275.000000
2342.765381 37903.000000
2344.305664 37628.000000
2345.845215 37025.000000
2347.384277 36847.000000
2348.922852 37443.000000
2350.460693 38425.000000
2351.998047 37486.000000
2353.534912 37489.000000
2355.071045 38012.000000
2356.606689 37297.000000
2358.141846 37673.000000
2359.676270 37127.000000
2361.210205 37745.000000
2362.743652 37879.000000
2364.276367 37010.000000
2365.808594 38125.000000
2367.340088 37622.000000
2368.871338 37599.000000
2370.401855 38350.000000
2371.931641 38600.000000
2373.461182 38247.000000
2374.989990 37645.000000
2376.518066 38425.000000
2378.045898 37577.000000
2379.572998 37921.000000
2381.099365 37966.000000
2382.625488 38579.000000
2384.150879 37875.000000
2385.675781 38566.000000
2387.199951 37547.000000
2388.723633 38813.000000
2390.246826 39154.000000
2391.769287 39095.000000
2393.291260 38627.000000
2394.812744 38661.000000
2396.333740 39173.000000
2397.854004 38770.000000
2399.373779 39128.000000
2400.892822 38923.000000
2402.411377 37728.000000
2403.929443 38611.000000
2405.447021 38477.000000
2406.963867 38433.000000
2408.480225 39159.000000
2409.996094 37581.000000
2411.511230 38861.000000
2413.025879 39098.000000
2414.540039 38680.000000
2416.053711 38230.000000
2417.566650 38642.000000
2419.079102 38577.000000
2420.590820 38385.000000
2422.102051 39554.000000
2423.612793 39098.000000
2425.123047 38777.000000
2426.632568 38624.000000
2428.141602 37931.000000
2429.650146 38560.000000
2431.157959 38775.000000
2432.665527 37971.000000
2434.172119 38596.000000
2435.678467 39580.000000
2437.184082 39732.000000
2438.689209 37886.000000
2440.193848 39204.000000
2441.697754 39070.000000
2443.201172 38302.000000
2444.704102 39603.000000
2446.206299 39332.000000
2447.708252 40356.000000
2449.209473 39769.000000
2450.709961 39596.000000
2452.209961 38946.000000
2453.709717 39602.000000
2455.208496 38575.000000
2456.707031 39037.000000
2458.204834 39642.000000
2459.702148 38837.000000
2461.198730 39390.000000
2462.695068 38668.000000
2464.190674 39772.000000
2465.685791 38920.000000
2467.180176 39988.000000
2468.674072 41072.000000
2470.167480 38693.000000
2471.660400 39687.000000
2473.152588 39886.000000
2474.644287 40621.000000
2476.135498 39512.000000
2477.626221 39493.000000
2479.116211 39536.000000
2480.605713 40579.000000
2482.094727 39090.000000
2483.583008 40702.000000
2485.070801 39713.000000
2486.558105 40357.000000
2488.044922 39921.000000
2489.531006 40220.000000
2491.016602 38472.000000
2492.501709 40267.000000
2493.986328 40266.000000
2495.470215 40285.000000
2496.953613 39464.000000
2498.436523 39820.000000
2499.918701 40235.000000
2501.400391 41116.000000
2502.881592 41169.000000
2504.362305 40109.000000
2505.842529 40839.000000
2507.322021 41112.000000
2508.801025 39710.000000
2510.279297 40523.000000
2511.757324 41256.000000
2513.234619 39998.000000
2514.711426 41737.000000
2516.187500 40676.000000
2517.663330 40693.000000
2519.138428 41321.000000
2520.613037 38505.000000
2522.086914 41317.000000
2523.560547 40142.000000
2525.033447 40531.000000
2526.505859 40542.000000
2527.977539 40724.000000
2529.448975 40441.000000
2530.919678 40872.000000
2532.389893 42621.000000
2533.859375 40792.000000
2535.328613 41411.000000
2536.797119 40899.000000
2538.265137 41310.000000
2539.732422 40537.000000
2541.199463 41003.000000
2542.665771 42189.000000
2544.131592 41082.000000
2545.596680 41011.000000
2547.061523 41801.000000
2548.525635 41290.000000
2549.989258 40896.000000
2551.452148 40940.000000
2552.914795 42987.000000
2554.376709 41393.000000
2555.838135 41673.000000
2557.299072 41992.000000
2558.759277 41301.000000
2560.219238 41051.000000
2561.678467 41308.000000
2563.137207 41426.000000
2564.595215 42064.000000
2566.052734 41731.000000
2567.510010 42122.000000
2568.966309 41245.000000
2570.422363 42177.000000
2571.877930 41411.000000
2573.332764 42081.000000
2574.787109 41699.000000
2576.240723 42110.000000
2577.694092 42046.000000
2579.146729 41432.000000
2580.598877 41007.000000
2582.050537 42249.000000
2583.501709 40805.000000
2584.952148 42670.000000
2586.402100 41905.000000
2587.851562 41458.000000
2589.300537 42834.000000
2590.749023 42042.000000
2592.196777 42160.000000
2593.644043 41971.000000
2595.090820 43133.000000
2596.536865 41621.000000
2597.982666 42075.000000
2599.427734 41463.000000
2600.872314 41145.000000
2602.316406 42354.000000
2603.759766 42301.000000
2605.202881 42352.000000
2606.645264 41438.000000
2608.087158 42491.000000
2609.528320 42774.000000
2610.969238 43508.000000
2612.409424 42951.000000
2613.849121 42301.000000
2615.288330 41704.000000
2616.727051 42402.000000
2618.165039 41672.000000
2619.602783 42369.000000
2621.039795 43234.000000
2622.476318 41990.000000
2623.912109 42616.000000
2625.347656 42226.000000
2626.782471 42301.000000
2628.216797 42828.000000
2629.650635 43554.000000
2631.083740 43195.000000
2632.516602 42980.000000
2633.948730 42947.000000
2635.380371 42875.000000
2636.811523 42699.000000
2638.242188 44227.000000
2639.672119 43357.000000
2641.101562 42688.000000
2642.530518 42843.000000
2643.958984 42802.000000
2645.386963 43473.000000
2646.814209 44160.000000
2648.241211 43781.000000
2649.667480 43728.000000
2651.093262 43697.000000
2652.518555 43117.000000
2653.943115 43220.000000
2655.367188 43790.000000
2656.791016 43662.000000
2658.214111 43322.000000
2659.636475 43194.000000
2661.058594 43936.000000
2662.479980 44917.000000
2663.901123 44491.000000
2665.321533 44236.000000
2666.741211 43488.000000
2668.160645 43567.000000
2669.579590 44928.000000
2670.997803 43347.000000
2672.415527 43927.000000
2673.832764 42989.000000
2675.249512 44450.000000
2676.665527 44877.000000
2678.081299 44407.000000
2679.496338 44891.000000
2680.910889 43540.000000
2682.324951 43959.000000
2683.738525 44147.000000
2685.151367 43771.000000
2686.563965 43987.000000
2687.975830 43081.000000
2689.387207 43475.000000
2690.798096 44782.000000
2692.208496 43397.000000
2693.618164 44655.000000
2695.027344 44024.000000
2696.436279 43619.000000
2697.844482 42535.000000
2699.251953 44115.000000
2700.659180 44654.000000
2702.065918 44781.000000
2703.471924 44016.000000
2704.877441 44719.000000
2706.282471 44162.000000
2707.687012 44245.000000
2709.091064 45052.000000
2710.494385 44756.000000
2711.897461 44151.000000
2713.299805 44849.000000
2714.701660 45589.000000
2716.103027 45499.000000
2717.503906 45745.000000
2718.904053 45391.000000
2720.303955 44712.000000
2721.703125 45083.000000
2723.101807 44711.000000
2724.500000 45405.000000
2725.897705 45445.000000
2727.294678 44806.000000
2728.691406 42621.000000
2730.087402 45221.000000
2731.482910 45782.000000
2732.877930 45674.000000
2734.272461 43600.000000
2735.666504 45246.000000
2737.060059 44624.000000
2738.452881 44481.000000
2739.845215 45171.000000
2741.237061 45202.000000
2742.628418 46276.000000
2744.019287 46789.000000
2745.409668 45312.000000
2746.799561 45904.000000
2748.188721 45400.000000
2749.577393 45493.000000
2750.965576 45035.000000
2752.353271 45410.000000
2753.740479 47593.000000
2755.127197 45557.000000
2756.513428 46276.000000
2757.898926 45087.000000
2759.283936 45092.000000
2760.668457 46355.000000
2762.052490 46763.000000
2763.436035 45984.000000
2764.819092 45767.000000
2766.201660 46516.000000
2767.583496 46203.000000
2768.964844 46050.000000
2770.345947 45287.000000
2771.726318 46638.000000
2773.106201 46010.000000
2774.485596 46020.000000
2775.864258 45527.000000
2777.242676 46681.000000
2778.620361 47025.000000
2779.997559 46515.000000
2781.374512 46764.000000
2782.750732 44953.000000
2784.126465 45304.000000
2785.501465 46195.000000
2786.876221 46307.000000
2788.250488 46512.000000
2789.624023 46354.000000
2790.997070 47007.000000
2792.369629 46857.000000
2793.741699 46805.000000
2795.113281 46926.000000
2796.484375 45078.000000
2797.854980 46306.000000
2799.224854 46368.000000
2800.594482 46262.000000
2801.963379 45905.000000
2803.331787 48107.000000
2804.699951 46218.000000
2806.067383 48361.000000
2807.434082 46005.000000
2808.800537 47786.000000
2810.166504 46717.000000
2811.531738 47747.000000
2812.896729 47042.000000
2814.260986 47920.000000
2815.624756 46318.000000
2816.988037 46726.000000
2818.350830 48401.000000
2819.713135 47779.000000
2821.074951 47244.000000
2822.436035 47800.000000
2823.796875 47487.000000
2825.156982 46673.000000
2826.516846 47674.000000
2827.875977 47332.000000
2829.234619 47451.000000
2830.592773 47628.000000
2831.950439 47977.000000
2833.307617 48242.000000
2834.664062 45757.000000
2836.020264 47878.000000
2837.375732 48174.000000
2838.730957 47666.000000
2840.085449 47305.000000
2841.439453 46481.000000
2842.792969 47699.000000
2844.145996 46986.000000
2845.498535 47347.000000
2846.850586 48114.000000
2848.202148 48386.000000
2849.552979 49613.000000
2850.903564 46987.000000
2852.253418 47362.000000
2853.603027 47350.000000
2854.951904 47616.000000
2856.300293 48087.000000
2857.648193 48248.000000
2858.995605 46742.000000
2860.342529 48015.000000
2861.688721 48190.000000
2863.034668 48871.000000
2864.380127 49301.000000
2865.724854 48792.000000
2867.069336 47769.000000
2868.413086 49416.000000
2869.756348 48089.000000
2871.099121 49005.000000
2872.441406 48433.000000
2873.783203 48481.000000
2875.124512 46938.000000
2876.465332 48873.000000
2877.805664 48466.000000
2879.145508 48750.000000
2880.484619 49719.000000
2881.823486 48864.000000
2883.161621 48374.000000
2884.499268 48728.000000
2885.836670 47251.000000
2887.173340 48800.000000
2888.509521 48533.000000
2889.845215 48451.000000
2891.180420 48356.000000
2892.515137 48049.000000
2893.849365 48368.000000
2895.182861 49251.000000
2896.516113 48696.000000
2897.848633 47628.000000
2899.180908 48632.000000
2900.512451 49745.000000
2901.843750 49601.000000
2903.174316 50027.000000
2904.504395 48872.000000
2905.833984 48431.000000
2907.163086 48526.000000
2908.491699 49070.000000
2909.819824 49568.000000
2911.147461 48131.000000
2912.474609 48449.000000
2913.801270 49529.000000
2915.127441 49272.000000
2916.452881 50605.000000
2917.778076 50404.000000
2919.102539 49906.000000
2920.426758 48445.000000
2921.750244 49898.000000
2923.073242 49629.000000
2924.395996 50602.000000
2925.718018 48871.000000
2927.039551 49459.000000
2928.360596 50076.000000
2929.681152 50741.000000
2931.001221 49432.000000
2932.320801 50500.000000
2933.639893 48254.000000
2934.958252 48390.000000
2936.276367 49653.000000
2937.593994 49851.000000
2938.910889 48783.000000
2940.227539 50467.000000
2941.543457 49459.000000
2942.859131 49199.000000
2944.174072 49959.000000
2945.488770 49527.000000
2946.802734 49657.000000
2948.116211 49466.000000
2949.429199 49235.000000
2950.741943 49947.000000
2952.053955 49812.000000
2953.365479 50589.000000
2954.676514 50099.000000
2955.987061 49698.000000
2957.297119 49633.000000
2958.606689 49317.000000
2959.915527 50740.000000
2961.224121 50403.000000
2962.532227 51209.000000
2963.839844 50025.000000
2965.146729 49465.000000
2966.453369 50484.000000
2967.759521 51645.000000
2969.064941 49903.000000
2970.370117 49824.000000
2971.674561 49859.000000
2972.978760 50773.000000
2974.282227 51247.000000
2975.585205 49670.000000
2976.887939 50653.000000
2978.189941 50761.000000
2979.491455 49765.000000
2980.792480 50543.000000
2982.093018 50523.000000
2983.393311 50041.000000
2984.692871 51895.000000
2985.991943 50493.000000
2987.290527 50391.000000
2988.588623 49991.000000
2989.886230 51415.000000
2991.183350 48885.000000
2992.479980 50644.000000
2993.776123 50303.000000
2995.071777 51547.000000
2996.366699 49206.000000
2997.661377 51682.000000
2998.955566 50323.000000
3000.249268 51442.000000
3001.542236 51620.000000
3002.834961 50209.000000
3004.127197 50839.000000
3005.418945 50966.000000
3006.709961 51213.000000
3008.000732 50742.000000
3009.290771 51789.000000
3010.580566 50585.000000
3011.869873 51333.000000
3013.158447 50641.000000
3014.446777 50689.000000
3015.734375 51061.000000
3017.021729 51589.000000
3018.308350 51279.000000
3019.594727 51096.000000
3020.880371 52205.000000
3022.165527 50239.000000
3023.450439 51898.000000
3024.734619 49943.000000
3026.018555 51767.000000
3027.301758 51104.000000
3028.584473 51405.000000
3029.866943 50959.000000
3031.148682 52306.000000
3032.429932 51405.000000
3033.710938 52010.000000
3034.991211 50888.000000
3036.270996 51611.000000
3037.550293 51329.000000
3038.829346 51598.000000
3040.107666 51384.000000
3041.385498 50834.000000
3042.662842 51898.000000
3043.939941 51103.000000
3045.216309 51258.000000
3046.492188 51616.000000
3047.767578 51442.000000
3049.042725 51619.000000
3050.317139 50756.000000
3051.591064 52068.000000
3052.864502 51763.000000
3054.137451 52588.000000
3055.410156 50464.000000
3056.682129 51877.000000
3057.953613 52498.000000
3059.224609 52492.000000
3060.495361 52497.000000
3061.765381 51946.000000
3063.034912 52326.000000
3064.303955 51140.000000
3065.572754 52902.000000
3066.840820 51339.000000
3068.108398 52225.000000
3069.375488 50136.000000
3070.642334 53214.000000
3071.908447 51512.000000
3073.174072 51905.000000
3074.439209 52781.000000
3075.704102 53259.000000
3076.968262 52133.000000
3078.231934 52068.000000
3079.495361 52923.000000
3080.758057 52607.000000
3082.020264 51986.000000
3083.282227 53991.000000
3084.543457 50734.000000
3085.804199 52979.000000
3087.064697 52856.000000
3088.324463 52204.000000
3089.583984 53544.000000
3090.842773 51639.000000
3092.101074 52902.000000
3093.359131 52037.000000
3094.616455 52394.000000
3095.873535 51570.000000
3097.129883 50582.000000
3098.385986 52140.000000
3099.641602 51635.000000
3100.896484 52206.000000
3102.151123 53166.000000
3103.405029 52877.000000
3104.658691 52271.000000
3105.911865 52700.000000
3107.164307 52948.000000
3108.416504 51439.000000
3109.668213 52237.000000
3110.919434 51774.000000
3112.169922 53989.000000
3113.420166 51290.000000
3114.669922 51530.000000
3115.919189 52304.000000
3117.167969 51356.000000
3118.416260 52819.000000
3119.664062 52785.000000
3120.911377 53094.000000
3122.158203 52926.000000
3123.404541 53441.000000
3124.650391 53212.000000
3125.895752 52259.000000
3127.140625 51851.000000
3128.385010 51060.000000
3129.629150 52985.000000
3130.872559 51693.000000
3132.115479 53336.000000
3133.357910 52719.000000
3134.600098 51758.000000
3135.841553 52316.000000
3137.082764 51748.000000
3138.323242 52258.000000
3139.563477 54219.000000
3140.802979 53064.000000
3142.042236 52401.000000
3143.280762 52181.000000
3144.519043 54162.000000
3145.756836 53373.000000
3146.993896 52157.000000
3148.230713 52641.000000
3149.467041 52225.000000
3150.702881 52396.000000
3151.938232 50966.000000
3153.173096 53215.000000
3154.407471 52250.000000
3155.641357 53726.000000
3156.874756 52922.000000
3158.107666 53491.000000
3159.340088 53263.000000
3160.572021 52001.000000
3161.803467 53429.000000
3163.034668 52568.000000
3164.265137 53070.000000
3165.495361 53543.000000
3166.724854 52466.000000
3167.954102 52378.000000
3169.182617 51866.000000
3170.410889 52789.000000
3171.638428 52564.000000
3172.865723 53071.000000
3174.092529 51579.000000
3175.318848 53154.000000
3176.544678 55169.000000
3177.770020 52727.000000
3178.994873 53086.000000
3180.219238 52100.000000
3181.443115 53778.000000
3182.666504 51824.000000
3183.889404 53133.000000
3185.111816 53292.000000
3186.333984 53610.000000
3187.555420 52054.000000
3188.776611 52243.000000
3189.997070 53834.000000
3191.217285 51933.000000
3192.436768 52824.000000
3193.656006 52968.000000
3194.874756 52299.000000
3196.093018 53720.000000
3197.310547 54319.000000
3198.527832 53213.000000
3199.744629 53865.000000
3200.960938 54686.000000
3202.177002 53680.000000
3203.392334 53855.000000
3204.607178 52613.000000
3205.821533 52145.000000
3207.035645 52650.000000
3208.249023 54038.000000
3209.462158 53375.000000
3210.674561 53009.000000
3211.886719 54227.000000
3213.098389 53344.000000
3214.309570 52233.000000
3215.520264 53190.000000
3216.730469 53362.000000
3217.940186 55021.000000
3219.149414 54056.000000
3220.358154 53918.000000
3221.566406 53675.000000
3222.774414 54847.000000
3223.981689 53451.000000
3225.188721 53223.000000
3226.395020 53983.000000
3227.601074 54311.000000
3228.806396 53362.000000
3230.011475 54062.000000
3231.216064 52394.000000
3232.420166 54862.000000
3233.623779 53623.000000
3234.826904 53763.000000
3236.029541 53911.000000
3237.231934 53900.000000
3238.433594 54256.000000
3239.635010 53895.000000
3240.835693 53879.000000
3242.036133 54904.000000
3243.235840 52179.000000
3244.435303 55277.000000
3245.634277 54024.000000
3246.832764 53656.000000
3248.030762 53641.000000
3249.228271 54564.000000
3250.425293 54609.000000
3251.622070 53755.000000
3252.818115 53687.000000
3254.013672 55406.000000
3255.208984 54565.000000
3256.403809 53826.000000
3257.597900 54856.000000
3258.791748 54509.000000
3259.985107 53877.000000
3261.177979 54978.000000
3262.370361 53795.000000
3263.562256 53020.000000
3264.753906 53644.000000
3265.944824 54373.000000
3267.135498 54140.000000
3268.325439 54278.000000
3269.515137 52446.000000
3270.704346 53266.000000
3271.893066 53354.000000
3273.081055 54004.000000
3274.269043 54076.000000
3275.456299 53407.000000
3276.643066 55408.000000
3277.829346 53592.000000
3279.015381 53606.000000
3280.200684 55556.000000
3281.385742 53437.000000
3282.570312 53080.000000
3283.754395 54018.000000
3284.937988 53385.000000
3286.121094 54652.000000
3287.303711 53642.000000
3288.485840 52817.000000
3289.667480 54870.000000
3290.848877 54549.000000
3292.029541 54270.000000
3293.209961 53688.000000
3294.389893 53494.000000
3295.569336 53313.000000
3296.748291 54954.000000
3297.926758 53477.000000
3299.104736 53963.000000
3300.282227 53703.000000
3301.459473 54615.000000
3302.635986 53262.000000
3303.812256 53047.000000
3304.988037 53901.000000
3306.163330 55184.000000
3307.338135 53725.000000
3308.512451 53240.000000
3309.686279 54306.000000
3310.859619 53257.000000
3312.032715 53144.000000
3313.205078 52710.000000
3314.377197 52983.000000
3315.548828 54357.000000
3316.719971 54098.000000
3317.890625 54288.000000
3319.060791 52274.000000
3320.230469 55027.000000
3321.399902 54579.000000
3322.568604 54018.000000
3323.737061 53970.000000
3324.904785 54370.000000
3326.072266 53442.000000
3327.239258 52920.000000
3328.405762 54570.000000
3329.572021 55594.000000
3330.737549 53911.000000
3331.902588 54663.000000
3333.067383 53449.000000
3334.231689 52201.000000
3335.395508 54395.000000
3336.558838 53927.000000
3337.721680 54411.000000
3338.884033 53324.000000
3340.045898 53772.000000
3341.207520 52438.000000
3342.368408 53230.000000
3343.529053 53241.000000
3344.689209 54229.000000
3345.848877 53730.000000
3347.008057 53402.000000
3348.166748 54590.000000
3349.324951 54775.000000
3350.482910 53078.000000
3351.640381 54408.000000
3352.797119 54960.000000
3353.953613 53931.000000
3355.109619 52414.000000
3356.265137 53416.000000
3357.420410 53850.000000
3358.574951 54978.000000
3359.729248 54920.000000
3360.882812 53016.000000
3362.036133 52965.000000
3363.188965 54007.000000
3364.341309 55459.000000
3365.493164 53507.000000
3366.644775 54919.000000
3367.795654 50830.000000
3368.946289 53492.000000
3370.096436 53750.000000
3371.246094 54406.000000
3372.395264 54174.000000
3373.543945 54425.000000
3374.692139 54126.000000
3375.840088 53985.000000
3376.987305 54705.000000
3378.134277 55464.000000
3379.280762 54895.000000
3380.426758 53225.000000
3381.572266 53959.000000
3382.717529 53781.000000
3383.862061 54767.000000
3385.006348 55057.000000
3386.150146 53513.000000
3387.293457 54878.000000
3388.436279 52426.000000
3389.578613 55422.000000
3390.720459 54488.000000
3391.862061 53664.000000
3393.003174 53148.000000
3394.143555 54090.000000
3395.283691 54710.000000
3396.423340 53544.000000
3397.562744 54628.000000
3398.701416 54157.000000
3399.839844 54884.000000
3400.977783 54802.000000
3402.114990 53633.000000
3403.251953 54799.000000
3404.388672 55601.000000
3405.524658 53836.000000
3406.660156 54930.000000
3407.795410 55625.000000
3408.930176 52305.000000
3410.064453 55831.000000
3411.198242 54611.000000
3412.331543 53853.000000
3413.464600 51311.000000
3414.596924 54147.000000
3415.729004 53718.000000
3416.860596 56576.000000
3417.991699 54508.000000
3419.122314 55290.000000
3420.252686 55914.000000
3421.382324 54614.000000
3422.511719 55766.000000
3423.640625 54720.000000
3424.769043 53736.000000
3425.896973 55750.000000
3427.024658 53437.000000
3428.151611 54970.000000
3429.278320 55417.000000
3430.404541 55639.000000
3431.530273 55059.000000
3432.655518 55628.000000
3433.780273 54288.000000
3434.904785 54012.000000
3436.028564 56556.000000
3437.152100 53646.000000
3438.275146 53813.000000
3439.397949 53138.000000
3440.520020 55544.000000
3441.641602 56669.000000
3442.762939 54259.000000
3443.883789 55434.000000
3445.004150 54038.000000
3446.124023 55899.000000
3447.243652 56321.000000
3448.362549 54996.000000
3449.481201 53509.000000
3450.599365 55561.000000
3451.717041 55614.000000
3452.834229 53937.000000
3453.951172 55612.000000
3455.067383 54092.000000
3456.183350 55365.000000
3457.298828 53273.000000
3458.413818 54035.000000
3459.528564 56764.000000
3460.642578 54096.000000
3461.756348 54868.000000
3462.869629 54627.000000
3463.982422 55296.000000
3465.094727 55634.000000
3466.206543 55854.000000
3467.318115 54453.000000
3468.429199 54125.000000
3469.539795 56295.000000
3470.649902 56173.000000
3471.759521 55927.000000
3472.868652 55908.000000
3473.977539 54116.000000
3475.085938 54269.000000
3476.193848 54546.000000
3477.301270 53002.000000
3478.408447 54775.000000
3479.514893 52990.000000
3480.621094 52547.000000
3481.726807 55966.000000
3482.832031 54506.000000
3483.937012 55238.000000
3485.041260 54172.000000
3486.145264 53707.000000
3487.248779 54405.000000
3488.351807 52610.000000
3489.454346 54843.000000
3490.556641 55488.000000
3491.658203 54587.000000
3492.759521 53512.000000
3493.860352 54673.000000
3494.960693 52301.000000
3496.060791 54955.000000
3497.160156 53225.000000
3498.259277 55043.000000
3499.357910 55319.000000
3500.456299 55323.000000
3501.553955 53206.000000
3502.651367 54668.000000
3503.748047 52858.000000
3504.844482 54334.000000
3505.940674 52949.000000
3507.036133 53851.000000
3508.131348 55351.000000
3509.225830 53457.000000
3510.320068 53979.000000
3511.413818 53142.000000
3512.507324 55395.000000
3513.600098 54395.000000
3514.692627 53555.000000
3515.784668 55646.000000
3516.876221 55058.000000
3517.967529 54345.000000
3519.058105 53547.000000
3520.148438 54951.000000
3521.238281 54671.000000
3522.327637 55508.000000
3523.416748 53762.000000
3524.505127 53884.000000
3525.593262 54921.000000
3526.680908 55592.000000
3527.768311 55738.000000
3528.854980 55302.000000
3529.941406 55598.000000
3531.027100 54898.000000
3532.112793 54457.000000
3533.197754 53254.000000
3534.282227 54495.000000
3535.366455 52900.000000
3536.450195 54109.000000
3537.533447 54796.000000
3538.616211 53514.000000
3539.698730 53591.000000
3540.780762 55462.000000
3541.862305 53622.000000
3542.943359 54082.000000
3544.023926 53339.000000
3545.104248 54200.000000
3546.183838 56303.000000
3547.263184 55753.000000
3548.342285 55620.000000
3549.420654 55134.000000
3550.498779 55613.000000
3551.576416 54527.000000
3552.653564 53280.000000
3553.730225 54845.000000
3554.806641 54371.000000
3555.882324 54147.000000
3556.957764 54854.000000
3558.032959 54227.000000
3559.107422 56866.000000
3560.181641 54331.000000
3561.255127 54552.000000
3562.328369 52402.000000
3563.401367 54549.000000
3564.473633 55586.000000
3565.545654 53366.000000
3566.617188 54238.000000
3567.688232 54347.000000
3568.759033 56316.000000
3569.829102 53719.000000
3570.898926 54208.000000
3571.968262 55292.000000
3573.037109 55100.000000
3574.105713 55638.000000
3575.173828 54406.000000
3576.241455 55226.000000
3577.308594 53206.000000
3578.375244 54381.000000
3579.441650 53855.000000
3580.507568 53755.000000
3581.572998 53724.000000
3582.637939 54884.000000
3583.702637 53259.000000
3584.766846 54463.000000
3585.830566 55854.000000
3586.893799 54044.000000
3587.956543 54261.000000
3589.019043 53749.000000
3590.081055 55892.000000
3591.142578 53879.000000
3592.203857 53515.000000
3593.264404 53786.000000
3594.324707 54140.000000
3595.384521 54688.000000
3596.444092 53543.000000
3597.502930 52404.000000
3598.561523 56347.000000
3599.619629 53854.000000
3600.677490 55123.000000
3601.734619 55829.000000
3602.791504 55926.000000
3603.847900 54558.000000
3604.903809 54773.000000
3605.959473 54292.000000
3607.014404 53618.000000
3608.069092 55614.000000
3609.123535 54011.000000
3610.177246 53591.000000
3611.230713 54305.000000
3612.283691 53491.000000
3613.336182 53217.000000
3614.388184 54857.000000
3615.439941 53204.000000
3616.491211 53361.000000
3617.541992 54026.000000
3618.592285 53424.000000
3619.642334 55159.000000
3620.691895 53699.000000
3621.740967 55506.000000
3622.789551 53057.000000
3623.837891 54451.000000
3624.885742 54064.000000
3625.933105 53392.000000
3626.979980 52866.000000
3628.026611 55540.000000
3629.072754 55289.000000
3630.118408 55573.000000
3631.163574 54470.000000
3632.208496 45370.000000
3633.252930 53124.000000
3634.296875 53705.000000
3635.340332 52768.000000
3636.383545 55978.000000
3637.426025 54159.000000
3638.468506 54558.000000
3639.510254 52510.000000
3640.551758 54138.000000
3641.592529 53497.000000
3642.633301 53576.000000
3643.673340 51527.000000
3644.713135 55197.000000
3645.752197 55189.000000
3646.791260 54057.000000
3647.829590 53781.000000
3648.867676 52064.000000
3649.905029 53676.000000
3650.942383 52955.000000
3651.979004 52692.000000
3653.015381 50711.000000
3654.051270 54666.000000
3655.086670 52832.000000
3656.121582 53467.000000
3657.156250 53919.000000
3658.190430 53923.000000
3659.224121 54845.000000
3660.257568 55521.000000
3661.290283 53914.000000
3662.322754 53543.000000
3663.354980 52521.000000
3664.386475 54331.000000
3665.417725 54506.000000
3666.448486 53896.000000
3667.478760 53150.000000
3668.508789 53567.000000
3669.538330 51916.000000
3670.567383 53760.000000
3671.595947 54700.000000
3672.624268 55331.000000
3673.652100 52977.000000
3674.679443 52944.000000
3675.706543 53369.000000
3676.732910 53255.000000
3677.759033 53990.000000
3678.784912 52108.000000
3679.810059 53187.000000
3680.834961 52565.000000
3681.859375 53913.000000
3682.883301 53531.000000
3683.906982 55256.000000
3684.930176 52450.000000
3685.952881 55142.000000
3686.975098 51867.000000
3687.997070 54457.000000
3689.018555 52862.000000
3690.039551 53375.000000
3691.060303 53824.000000
3692.080566 52768.000000
3693.100342 51979.000000
3694.119629 54681.000000
3695.138672 51162.000000
3696.157227 53579.000000
3697.175293 55798.000000
3698.192871 53902.000000
3699.210205 53003.000000
3700.227051 53073.000000
3701.243408 53527.000000
3702.259521 55017.000000
3703.275146 53435.000000
3704.290283 54341.000000
3705.304932 54066.000000
3706.319336 57019.000000
3707.333252 54973.000000
3708.346680 54949.000000
3709.359619 53330.000000
3710.372314 53285.000000
3711.384521 53443.000000
3712.396484 52765.000000
3713.407715 52726.000000
3714.418701 53215.000000
3715.429199 53954.000000
3716.439453 52750.000000
3717.449219 54766.000000
3718.458496 52397.000000
3719.467285 53379.000000
3720.475830 52671.000000
3721.483887 53123.000000
3722.491455 53855.000000
3723.498535 53723.000000
3724.505371 53936.000000
3725.511719 53202.000000
3726.517578 52809.000000
3727.523193 54076.000000
3728.528320 53273.000000
3729.532959 53840.000000
3730.537354 52885.000000
3731.541016 52673.000000
3732.544678 52049.000000
3733.547607 52384.000000
3734.550293 53514.000000
3735.552490 53478.000000
3736.554199 52093.000000
3737.555420 51539.000000
3738.556396 53933.000000
3739.556885 54678.000000
3740.557129 53352.000000
3741.556641 55096.000000
3742.555908 54622.000000
3743.554932 51865.000000
3744.553223 53880.000000
3745.551270 54694.000000
3746.548828 55707.000000
3747.546143 52877.000000
3748.542969 52830.000000
3749.539307 54496.000000
3750.535156 51969.000000
3751.530762 55595.000000
3752.525879 54845.000000
3753.520508 53705.000000
3754.514648 51457.000000
3755.508545 52467.000000
3756.502197 52994.000000
3757.495117 53485.000000
3758.487793 52116.000000
3759.479980 53628.000000
3760.471680 54489.000000
3761.463135 54408.000000
3762.454102 54081.000000
3763.444580 53441.000000
3764.434814 51635.000000
3765.424561 52241.000000
3766.413818 52416.000000
3767.402588 52028.000000
3768.391113 55271.000000
3769.379150 54770.000000
3770.366699 53978.000000
3771.354004 53843.000000
3772.340820 51429.000000
3773.327393 54537.000000
3774.313232 51599.000000
3775.298828 52093.000000
3776.283936 53568.000000
3777.268799 53331.000000
3778.253174 50585.000000
3779.237061 53872.000000
3780.220459 51612.000000
3781.203613 50615.000000
3782.186279 52525.000000
3783.168701 52643.000000
3784.150391 52330.000000
3785.131836 53119.000000
3786.113037 53224.000000
3787.093506 52845.000000
3788.073730 52177.000000
3789.053711 54303.000000
3790.032959 53646.000000
3791.011963 53053.000000
3791.990479 51846.000000
3792.968750 52964.000000
3793.946533 51463.000000
3794.923828 51468.000000
3795.900635 53526.000000
3796.877197 53017.000000
3797.853271 50837.000000
3798.829102 52200.000000
3799.804199 51640.000000
3800.779053 51728.000000
3801.753662 52497.000000
3802.727783 54169.000000
3803.701416 53501.000000
3804.674561 51118.000000
3805.647461 52221.000000
3806.619873 52352.000000
3807.591797 51794.000000
3808.563232 52923.000000
3809.534424 53723.000000
3810.505371 52873.000000
3811.475586 51567.000000
3812.445557 53319.000000
3813.415039 52638.000000
3814.384277 51998.000000
3815.353027 51454.000000
3816.321289 51768.000000
3817.289062 53009.000000
3818.256592 51678.000000
3819.223633 51932.000000
3820.190430 54080.000000
3821.156738 51896.000000
3822.122559 52912.000000
3823.087891 53038.000000
3824.052979 50545.000000
3825.017578 52596.000000
3825.981934 51695.000000
3826.945557 53343.000000
3827.909180 52616.000000
3828.872070 52823.000000
3829.834717 50671.000000
3830.796875 53007.000000
3831.758545 50595.000000
3832.719971 51864.000000
3833.680908 52069.000000
3834.641357 52067.000000
3835.601562 52665.000000
3836.561279 53205.000000
3837.520752 52657.000000
3838.479492 50268.000000
3839.437988 54970.000000
3840.396240 53262.000000
3841.354004 54095.000000
3842.311279 50495.000000
3843.268066 52933.000000
3844.224609 50707.000000
3845.180664 52133.000000
3846.136230 53603.000000
3847.091553 53009.000000
3848.046387 52093.000000
3849.000977 51463.000000
3849.954834 52349.000000
3850.908447 53907.000000
3851.861816 50157.000000
3852.814697 53208.000000
3853.767090 50346.000000
3854.718994 52909.000000
3855.670654 52000.000000
3856.621826 52419.000000
3857.572510 50806.000000
3858.522949 51337.000000
3859.472900 52189.000000
3860.422607 51330.000000
3861.371826 53038.000000
3862.320557 51009.000000
3863.268799 53783.000000
3864.216797 51673.000000
3865.164307 51804.000000
3866.111572 52087.000000
3867.058350 52951.000000
3868.004639 50331.000000
3868.950684 50536.000000
3869.895996 52868.000000
3870.841309 51233.000000
3871.785889 51131.000000
3872.730225 51378.000000
3873.674316 49666.000000
3874.617676 53140.000000
3875.560791 52831.000000
3876.503418 50404.000000
3877.445801 52419.000000
3878.387695 52443.000000
3879.329346 51971.000000
3880.270264 50772.000000
3881.210938 53870.000000
3882.151367 49928.000000
3883.091309 50471.000000
3884.030762 52410.000000
3884.969727 50442.000000
3885.908447 51531.000000
3886.846680 52847.000000
3887.784668 50391.000000
3888.721924 53794.000000
3889.659180 52440.000000
3890.595703 49998.000000
3891.531982 51518.000000
3892.468018 50059.000000
3893.403320 52894.000000
3894.338379 53053.000000
3895.272949 52325.000000
3896.207275 52764.000000
3897.141113 52671.000000
3898.074707 51621.000000
3899.007568 52098.000000
3899.940430 51622.000000
3900.872559 50746.000000
3901.804443 53041.000000
3902.735840 50531.000000
3903.666992 51468.000000
3904.597656 52993.000000
3905.527832 53095.000000
3906.457520 49402.000000
3907.386963 48957.000000
3908.316162 51734.000000
3909.244629 52764.000000
3910.173096 51703.000000
3911.100830 50016.000000
3912.028320 50158.000000
3912.955322 54109.000000
3913.881836 50180.000000
3914.808105 50273.000000
3915.733887 51600.000000
3916.659424 50036.000000
3917.584473 50694.000000
3918.509033 53953.000000
3919.433350 54477.000000
3920.357178 52001.000000
3921.280762 50402.000000
3922.203613 52614.000000
3923.126221 51777.000000
3924.048584 52046.000000
3924.970459 51747.000000
3925.891846 51664.000000
3926.812988 50987.000000
3927.733643 52855.000000
3928.653809 50826.000000
3929.573730 49111.000000
3930.493164 50453.000000
3931.412109 51014.000000
3932.330811 51569.000000
3933.249023 51628.000000
3934.166992 50313.000000
3935.084473 53163.000000
3936.001465 51278.000000
3936.918213 52159.000000
3937.834473 50858.000000
3938.750244 50800.000000
3939.665771 50447.000000
3940.580811 52408.000000
3941.495605 51924.000000
3942.409668 48169.000000
3943.323730 50267.000000
3944.237061 51456.000000
3945.150146 52570.000000
3946.062988 54059.000000
3946.975098 52383.000000
3947.887207 51233.000000
3948.798584 50699.000000
3949.709717 50117.000000
3950.620361 50270.000000
3951.530762 48254.000000
3952.440674 50371.000000
3953.350098 50723.000000
3954.259277 50054.000000
3955.167969 51187.000000
3956.076416 49813.000000
3956.984375 49461.000000
3957.891846 48393.000000
3958.799072 51650.000000
3959.705811 50730.000000
3960.612061 51870.000000
3961.518066 49711.000000
3962.423584 50235.000000
3963.328857 51137.000000
3964.233398 47799.000000
3965.137939 46664.000000
3966.041992 51097.000000
3966.945557 50881.000000
3967.848633 51241.000000
3968.751465 50596.000000
3969.653809 49484.000000
3970.555908 50379.000000
3971.457520 50395.000000
3972.358643 49546.000000
3973.259521 48541.000000
3974.159912 51972.000000
3975.060059 50272.000000
3975.959473 52089.000000
3976.858887 50959.000000
3977.757568 50220.000000
3978.656250 50223.000000
3979.554199 48494.000000
3980.451904 53840.000000
3981.349121 51351.000000
3982.246094 51129.000000
3983.142578 52224.000000
3984.038574 49091.000000
3984.934326 49203.000000
3985.829590 51101.000000
3986.724609 49362.000000
3987.619141 50017.000000
3988.513184 50329.000000
3989.406982 50083.000000
3990.300293 48725.000000
3991.193115 50753.000000
3992.085693 50584.000000
3992.978027 52467.000000
3993.869629 50022.000000
3994.760986 51112.000000
3995.652100 48104.000000
3996.542725 52286.000000
3997.432861 50999.000000
3998.322754 50773.000000
3999.212158 49470.000000
4000.101074 51053.000000
4000.989746 51133.000000
4001.877930 52298.000000
4002.765869 49861.000000
4003.653320 52067.000000
4004.540283 50919.000000
4005.427002 48723.000000
4006.313232 50738.000000
4007.199219 50469.000000
4008.084717 49301.000000
4008.969727 50554.000000
4009.854492 50399.000000
4010.738770 52443.000000
4011.622803 50222.000000
4012.506348 49362.000000
4013.389404 50994.000000
4014.272217 48651.000000
4015.154541 49627.000000
4016.036621 49897.000000
4016.918213 48371.000000
4017.799316 50041.000000
4018.680176 50427.000000
4019.560547 49792.000000
4020.440674 48765.000000
4021.320312 50143.000000
4022.199463 49325.000000
4023.078369 49293.000000
4023.957031 50260.000000
4024.834961 46738.000000
4025.712646 50412.000000
4026.590088 49491.000000
4027.466797 51411.000000
4028.343506 50198.000000
4029.219482 50613.000000
4030.095215 50515.000000
4030.970703 49544.000000
4031.845703 48246.000000
4032.720215 50415.000000
4033.594482 51927.000000
4034.468262 50577.000000
4035.341553 48623.000000
4036.214600 51547.000000
4037.087158 48483.000000
4037.959473 49790.000000
4038.831299 51404.000000
4039.702881 50736.000000
4040.573975 48049.000000
4041.444580 50779.000000
4042.314941 50979.000000
4043.184814 50596.000000
4044.054443 49311.000000
4044.923584 47250.000000
4045.792236 51953.000000
4046.660645 51244.000000
4047.528564 49484.000000
4048.396240 49163.000000
4049.263428 53055.000000
4050.130127 49610.000000
4050.996582 47535.000000
4051.862793 49422.000000
4052.728271 50921.000000
4053.593506 48350.000000
4054.458496 49228.000000
