300.00000	1099.28137
302.00000	949.13062
304.00000	778.42609
306.00000	613.34277
308.00000	484.72104
310.00000	395.57697
312.00000	337.36459
314.00000	292.53571
316.00000	250.99994
318.00000	214.55278
320.00000	182.16164
322.00000	161.98776
324.00000	151.69386
326.00000	143.16472
328.00000	130.82037
330.00000	72.12923
332.00000	37.59749
334.00000	75.23301
336.00000	101.01129
338.00000	74.09010
340.00000	53.53219
342.00000	54.13303
344.00000	55.40157
346.00000	119.94386
348.00000	153.78281
350.00000	122.50989
352.00000	81.21782
354.00000	71.34888
356.00000	73.09915
358.00000	80.09192
360.00000	84.24570
362.00000	72.55277
364.00000	66.48351
366.00000	71.28984
368.00000	71.05456
370.00000	60.72623
372.00000	66.75537
374.00000	80.75472
376.00000	79.24978
378.00000	63.75598
380.00000	62.51190
382.00000	70.57549
384.00000	66.00056
386.00000	64.24544
388.00000	79.79218
390.00000	59.57043
392.00000	55.44368
394.00000	70.34355
396.00000	71.43437
398.00000	68.88535
400.00000	77.87303
402.00000	94.61370
404.00000	102.42303
406.00000	91.04256
408.00000	73.77593
410.00000	65.07780
412.00000	60.79929
414.00000	59.23016
416.00000	72.66301
418.00000	55.33353
420.00000	47.50474
422.00000	77.99722
424.00000	90.30337
426.00000	67.49399
428.00000	62.03098
430.00000	72.86698
432.00000	66.52415
434.00000	84.68650
436.00000	95.01048
438.00000	79.41021
440.00000	70.80664
442.00000	96.67868
444.00000	72.02255
446.00000	52.96216
448.00000	65.74544
450.00000	56.22781
452.00000	68.03567
454.00000	86.17732
456.00000	74.91240
458.00000	50.52667
460.00000	75.81915
462.00000	87.69416
464.00000	80.97933
466.00000	79.25813
468.00000	77.71594
470.00000	78.33112
472.00000	61.41292
474.00000	65.30364
476.00000	107.08460
478.00000	79.49663
480.00000	65.70662
482.00000	84.96290
484.00000	98.02591
486.00000	102.85338
488.00000	90.65282
490.00000	74.98685
492.00000	73.16329
494.00000	82.28121
496.00000	80.26256
498.00000	80.29086
500.00000	81.68760
502.00000	75.46273
504.00000	77.93965
506.00000	108.50626
508.00000	91.32629
510.00000	48.96081
512.00000	87.42030
514.00000	71.31113
516.00000	79.68265
518.00000	111.53629
520.00000	91.53467
522.00000	99.11160
524.00000	105.76994
526.00000	107.61342
528.00000	108.70827
530.00000	87.39135
532.00000	80.34448
534.00000	85.81870
536.00000	91.57458
538.00000	98.45067
540.00000	102.60529
542.00000	92.54140
544.00000	76.68973
546.00000	77.36887
548.00000	98.73164
550.00000	101.11926
552.00000	87.26363
554.00000	74.16105
556.00000	72.67778
558.00000	107.25843
560.00000	104.99689
562.00000	73.61752
564.00000	76.86862
566.00000	89.46883
568.00000	97.18739
570.00000	93.37081
572.00000	80.20539
574.00000	75.28998
576.00000	102.75822
578.00000	129.30507
580.00000	130.24921
582.00000	115.79066
584.00000	96.66949
586.00000	96.06053
588.00000	110.21796
590.00000	118.70651
592.00000	114.21985
594.00000	102.65948
596.00000	101.23072
598.00000	108.47083
600.00000	106.24633
602.00000	100.86119
604.00000	95.61005
606.00000	96.37622
608.00000	103.84254
610.00000	103.86880
612.00000	95.02065
614.00000	93.73358
616.00000	108.28232
618.00000	118.82742
620.00000	96.72103
622.00000	72.93730
624.00000	62.11626
626.00000	56.43209
628.00000	79.70385
630.00000	103.98431
632.00000	75.91058
634.00000	31.69124
636.00000	79.04823
638.00000	96.78333
640.00000	104.29202
642.00000	118.00240
644.00000	87.60529
646.00000	71.98597
648.00000	75.78342
650.00000	83.04856
652.00000	84.09357
654.00000	76.92722
656.00000	80.19615
658.00000	83.10429
660.00000	87.78340
662.00000	100.22224
664.00000	44.34844
666.00000	35.27669
668.00000	83.23445
670.00000	91.42515
672.00000	103.76309
674.00000	101.17187
676.00000	90.76510
678.00000	90.60728
680.00000	89.70078
682.00000	97.09850
684.00000	93.62465
686.00000	78.32526
688.00000	73.75464
690.00000	69.91624
692.00000	62.20152
694.00000	63.70559
696.00000	81.61044
698.00000	90.71690
700.00000	60.27304
702.00000	43.45558
704.00000	55.12893
706.00000	50.53686
708.00000	97.10540
710.00000	126.13482
712.00000	140.33136
714.00000	193.04253
716.00000	211.23317
718.00000	215.02449
720.00000	236.45576
722.00000	256.29443
724.00000	235.10722
726.00000	227.85123
728.00000	207.84633
730.00000	173.78316
732.00000	163.29439
734.00000	136.27840
736.00000	118.67157
738.00000	127.04540
740.00000	135.70010
742.00000	116.33084
744.00000	112.09403
746.00000	124.48775
748.00000	136.95105
750.00000	141.38741
752.00000	114.21462
754.00000	102.03637
756.00000	117.18202
758.00000	122.48665
760.00000	103.57743
762.00000	83.98787
764.00000	76.92584
766.00000	81.87013
768.00000	91.89996
770.00000	86.84689
772.00000	82.78657
774.00000	83.30950
776.00000	73.93602
778.00000	68.70282
780.00000	77.07294
782.00000	97.98066
784.00000	131.66986
786.00000	166.79691
788.00000	126.71436
790.00000	84.31226
792.00000	86.15199
794.00000	80.93673
796.00000	100.78699
798.00000	94.13938
800.00000	61.77797
802.00000	56.79404
804.00000	77.26981
806.00000	93.30781
808.00000	92.54812
810.00000	78.80140
812.00000	58.44805
814.00000	41.40616
816.00000	41.72865
818.00000	35.00063
820.00000	12.85091
822.00000	49.76878
824.00000	54.29329
826.00000	36.05952
828.00000	44.14914
830.00000	32.77040
832.00000	31.75448
834.00000	46.84782
836.00000	58.89137
838.00000	53.00317
840.00000	34.39777
842.00000	32.53519
844.00000	43.65171
846.00000	51.95602
848.00000	72.96709
850.00000	89.44868
852.00000	106.06202
854.00000	104.89174
856.00000	68.48460
858.00000	100.86218
860.00000	63.65979
862.00000	28.47140
864.00000	125.64276
866.00000	65.17657
868.00000	38.16131
870.00000	54.94108
872.00000	35.48176
874.00000	68.11854
876.00000	44.11621
878.00000	41.71411
880.00000	89.88025
882.00000	91.02953
884.00000	84.05246
886.00000	75.13864
888.00000	67.44328
890.00000	72.94254
892.00000	90.08338
894.00000	98.72118
896.00000	84.74518
898.00000	58.93516
900.00000	46.20213
902.00000	44.43520
904.00000	44.10666
906.00000	41.64206
908.00000	44.52282
910.00000	62.98360
912.00000	78.41873
914.00000	78.12229
916.00000	70.29665
918.00000	70.41129
920.00000	69.58893
922.00000	79.67019
924.00000	105.03133
926.00000	125.85220
928.00000	123.90434
930.00000	117.98248
932.00000	98.94334
934.00000	62.77295
936.00000	52.13268
938.00000	51.60429
940.00000	58.06436
942.00000	68.80927
944.00000	62.27440
946.00000	29.62933
948.00000	34.31946
950.00000	60.51301
952.00000	61.19026
954.00000	90.06924
956.00000	85.82638
958.00000	68.62411
960.00000	82.22402
962.00000	91.95017
964.00000	71.21359
966.00000	70.82397
968.00000	86.72961
970.00000	68.08973
972.00000	60.07262
974.00000	60.31388
976.00000	67.61086
978.00000	80.03657
980.00000	79.50462
982.00000	87.56114
984.00000	67.20361
986.00000	38.31239
988.00000	73.73013
990.00000	97.25270
992.00000	73.55003
994.00000	40.11087
996.00000	47.87722
998.00000	84.62841
1000.00000	88.02457
1002.00000	71.25864
1004.00000	51.33746
1006.00000	13.82582
1008.00000	44.50470
1010.00000	70.31931
1012.00000	47.82651
1014.00000	32.08303
1016.00000	40.06954
1018.00000	62.71842
1020.00000	75.17884
1022.00000	65.12820
1024.00000	54.42482
1026.00000	72.69975
1028.00000	88.27473
1030.00000	81.59674
1032.00000	78.81426
1034.00000	83.15910
1036.00000	69.78851
1038.00000	52.08159
1040.00000	59.88449
1042.00000	81.40079
1044.00000	107.71214
1046.00000	93.84749
1048.00000	57.46263
1050.00000	77.75552
1052.00000	90.02347
1054.00000	98.39448
1056.00000	123.68275
1058.00000	156.56438
1060.00000	177.21187
1062.00000	156.25575
1064.00000	144.29111
1066.00000	177.35231
1068.00000	198.80640
1070.00000	218.92853
1072.00000	249.90257
1074.00000	293.50537
1076.00000	349.07852
1078.00000	418.68903
1080.00000	514.95026
1082.00000	662.92810
1084.00000	894.91327
1086.00000	1237.11450
1088.00000	1687.38696
1090.00000	2208.71558
1092.00000	2685.70996
1094.00000	2937.37012
1096.00000	2837.07959
1098.00000	2382.23462
1100.00000	1775.51050
1102.00000	1266.89380
1104.00000	890.79584
1106.00000	616.64758
1108.00000	439.97040
1110.00000	338.70401
1112.00000	249.97528
1114.00000	190.58426
1116.00000	183.82442
1118.00000	201.96817
1120.00000	195.14009
1122.00000	174.73575
1124.00000	145.41803
1126.00000	130.57150
1128.00000	150.39316
1130.00000	176.35843
1132.00000	151.77043
1134.00000	126.52431
1136.00000	135.81010
1138.00000	129.16351
1140.00000	103.64183
1142.00000	102.53172
1144.00000	107.12383
1146.00000	95.16904
1148.00000	136.00778
1150.00000	124.81674
1152.00000	100.52452
1154.00000	122.61681
1156.00000	118.33582
1158.00000	113.24542
1160.00000	134.39000
1162.00000	144.35468
1164.00000	107.24315
1166.00000	102.95292
1168.00000	121.62977
1170.00000	117.05554
1172.00000	86.73572
1174.00000	82.04134
1176.00000	90.70065
1178.00000	84.38788
1180.00000	76.64615
1182.00000	99.05470
1184.00000	108.48624
1186.00000	119.36044
1188.00000	126.05887
1190.00000	110.21309
1192.00000	103.46748
1194.00000	99.51306
1196.00000	83.29439
1198.00000	64.74963
1200.00000	68.56940
1202.00000	72.83487
1204.00000	81.28571
1206.00000	86.52720
1208.00000	77.12864
1210.00000	85.13018
1212.00000	90.96177
1214.00000	96.85394
1216.00000	115.76970
1218.00000	130.45563
1220.00000	134.76840
1222.00000	146.16837
1224.00000	152.90306
1226.00000	137.68713
1228.00000	165.67754
1230.00000	159.42461
1232.00000	117.69453
1234.00000	103.18384
1236.00000	90.60394
1238.00000	107.32760
1240.00000	112.18600
1242.00000	100.95927
1244.00000	138.47438
1246.00000	144.40295
1248.00000	150.52359
1250.00000	165.41737
1252.00000	156.60893
1254.00000	172.76376
1256.00000	176.82394
1258.00000	163.57854
1260.00000	158.58592
1262.00000	159.09460
1264.00000	151.39412
1266.00000	149.19713
1268.00000	151.68584
1270.00000	147.15656
1272.00000	170.73802
1274.00000	194.06604
1276.00000	201.89810
1278.00000	203.06696
1280.00000	193.59454
1282.00000	189.17422
1284.00000	213.13652
1286.00000	236.63582
1288.00000	208.81578
1290.00000	203.34340
1292.00000	208.52661
1294.00000	192.34630
1296.00000	171.84566
1298.00000	191.35811
1300.00000	212.22537
1302.00000	216.35887
1304.00000	212.79027
1306.00000	201.34584
1308.00000	188.77869
1310.00000	207.90083
1312.00000	211.36282
1314.00000	134.30807
1316.00000	95.95061
1318.00000	109.83443
1320.00000	122.85803
1322.00000	106.10249
1324.00000	87.76745
1326.00000	65.55759
1328.00000	59.23058
1330.00000	72.41177
1332.00000	77.05994
1334.00000	79.22766
1336.00000	81.02035
1338.00000	87.01745
1340.00000	91.87278
1342.00000	71.81060
1344.00000	66.35944
1346.00000	71.63887
1348.00000	77.71407
1350.00000	101.16190
1352.00000	80.49022
1354.00000	58.68365
1356.00000	57.43881
1358.00000	42.78454
1360.00000	47.93049
1362.00000	66.02440
1364.00000	82.47520
1366.00000	87.73687
1368.00000	81.77502
1370.00000	111.64608
1372.00000	136.00557
1374.00000	109.87537
1376.00000	72.88739
1378.00000	92.86284
1380.00000	106.26933
1382.00000	84.52703
1384.00000	76.17499
1386.00000	101.86656
1388.00000	109.48677
1390.00000	81.32909
1392.00000	54.53613
1394.00000	76.60879
1396.00000	132.33762
1398.00000	102.48172
1400.00000	59.10081
1402.00000	128.30797
1404.00000	80.19672
1406.00000	43.64427
1408.00000	77.70779
1410.00000	105.44768
1412.00000	97.62083
1414.00000	52.80145
1416.00000	44.56746
1418.00000	94.23410
1420.00000	122.11466
1422.00000	92.04372
1424.00000	111.31432
1426.00000	144.14258
1428.00000	114.60412
1430.00000	147.09654
1432.00000	159.81230
1434.00000	144.11594
1436.00000	132.30222
1438.00000	104.79733
1440.00000	88.39391
1442.00000	122.36645
1444.00000	139.86363
1446.00000	86.90649
1448.00000	116.73795
1450.00000	114.51147
1452.00000	76.78276
1454.00000	74.24793
1456.00000	65.57669
1458.00000	67.76461
1460.00000	72.80860
1462.00000	56.19621
1464.00000	23.77160
1466.00000	28.03927
1468.00000	45.13619
1470.00000	59.95523
1472.00000	69.22065
1474.00000	43.87021
1476.00000	24.87087
1478.00000	50.11088
1480.00000	101.31707
1482.00000	126.38270
1484.00000	133.75763
1486.00000	118.95203
1488.00000	93.78542
1490.00000	81.94502
1492.00000	79.42123
1494.00000	97.72208
1496.00000	90.81874
1498.00000	57.91453
1500.00000	83.89166
1502.00000	84.84796
1504.00000	92.28610
1506.00000	120.18206
1508.00000	108.93977
1510.00000	87.28600
1512.00000	68.90748
1514.00000	100.13310
1516.00000	162.21140
1518.00000	127.38950
1520.00000	128.29260
1522.00000	126.40356
1524.00000	84.33280
1526.00000	104.43244
1528.00000	140.93668
1530.00000	139.09116
1532.00000	135.87753
1534.00000	158.14703
1536.00000	102.10110
1538.00000	86.68961
1540.00000	97.49068
1542.00000	83.26029
1544.00000	102.94078
1546.00000	68.32104
1548.00000	46.06326
1550.00000	55.45333
1552.00000	31.61573
1554.00000	51.91994
1556.00000	47.10947
1558.00000	31.22580
1560.00000	53.19418
1562.00000	55.68463
1564.00000	95.81934
1566.00000	124.98417
1568.00000	106.28152
1570.00000	103.90447
1572.00000	131.16151
1574.00000	133.50125
1576.00000	115.91849
1578.00000	113.46309
1580.00000	88.83184
1582.00000	94.64674
1584.00000	132.70668
1586.00000	135.80931
1588.00000	82.23817
1590.00000	129.81686
1592.00000	184.74564
1594.00000	185.64919
1596.00000	206.12895
1598.00000	205.60994
1600.00000	144.16814
1602.00000	109.44761
1604.00000	160.44896
1606.00000	186.63237
1608.00000	198.40030
1610.00000	178.47949
1612.00000	172.69624
1614.00000	233.51974
1616.00000	171.32532
1618.00000	140.11520
1620.00000	161.81592
1622.00000	135.57756
1624.00000	172.04955
1626.00000	172.74783
1628.00000	113.05295
1630.00000	79.45102
1632.00000	112.33460
1634.00000	65.12708
1636.00000	30.79073
1638.00000	59.74450
1640.00000	68.58083
1642.00000	73.03078
1644.00000	86.55276
1646.00000	112.23914
1648.00000	125.10453
1650.00000	89.41766
1652.00000	69.76420
1654.00000	97.38711
1656.00000	109.48698
1658.00000	70.24252
1660.00000	147.19780
1662.00000	191.56290
1664.00000	177.66632
1666.00000	196.27173
1668.00000	165.13953
1670.00000	136.11008
1672.00000	160.51695
1674.00000	190.88194
1676.00000	145.57326
1678.00000	117.15115
1680.00000	128.24876
1682.00000	128.39111
1684.00000	99.36571
1686.00000	114.83247
1688.00000	107.68346
1690.00000	91.70283
1692.00000	123.04881
1694.00000	159.94008
1696.00000	129.41554
1698.00000	130.26717
1700.00000	150.58795
1702.00000	70.41600
1704.00000	52.95282
1706.00000	89.03239
1708.00000	105.71958
1710.00000	89.84988
1712.00000	85.28578
1714.00000	65.26180
1716.00000	81.52753
1718.00000	116.79419
1720.00000	78.98731
1722.00000	115.12030
1724.00000	118.50607
1726.00000	85.04166
1728.00000	111.68268
1730.00000	76.86487
1732.00000	67.97141
1734.00000	108.95210
1736.00000	108.50259
1738.00000	48.55557
1740.00000	178.16933
1742.00000	217.58980
1744.00000	124.68277
1746.00000	192.83948
1748.00000	152.06924
1750.00000	114.35697
1752.00000	128.65393
1754.00000	132.61893
1756.00000	167.19418
1758.00000	131.30217
1760.00000	125.78402
1762.00000	160.47562
1764.00000	98.49434
1766.00000	161.96062
1768.00000	139.80226
1770.00000	94.82582
1772.00000	228.19653
1774.00000	198.66057
1776.00000	124.43878
1778.00000	123.00773
1780.00000	130.48947
1782.00000	76.08055
1784.00000	149.77098
1786.00000	184.26958
1788.00000	158.84924
1790.00000	221.51625
1792.00000	121.46867
1794.00000	91.78673
1796.00000	147.22581
1798.00000	121.09673
1800.00000	94.08325
1802.00000	136.75337
1804.00000	148.86896
1806.00000	94.76392
1808.00000	88.18042
1810.00000	112.19087
1812.00000	104.14943
1814.00000	87.80276
1816.00000	117.57697
1818.00000	144.87991
1820.00000	146.92023
1822.00000	142.03784
1824.00000	131.18297
1826.00000	88.31811
1828.00000	61.96587
1830.00000	51.73812
1832.00000	83.11610
1834.00000	144.04414
1836.00000	79.32261
1838.00000	110.54388
1840.00000	151.32581
1842.00000	45.12971
1844.00000	19.19390
1846.00000	75.26855
1848.00000	138.78294
1850.00000	144.99821
1852.00000	96.80475
1854.00000	101.90936
1856.00000	145.44112
1858.00000	155.93077
1860.00000	137.02806
1862.00000	180.90952
1864.00000	169.06639
1866.00000	165.31311
1868.00000	212.64203
1870.00000	178.20064
1872.00000	146.63641
1874.00000	211.05702
1876.00000	238.31677
1878.00000	125.22355
1880.00000	182.02226
1882.00000	182.39459
1884.00000	157.14195
1886.00000	187.80051
1888.00000	69.03320
1890.00000	135.86726
1892.00000	165.78192
1894.00000	65.46896
1896.00000	114.32312
1898.00000	104.81510
1900.00000	125.48359
1902.00000	177.43729
1904.00000	154.18497
1906.00000	111.23434
1908.00000	74.84216
1910.00000	161.95732
1912.00000	267.59622
1914.00000	125.72463
1916.00000	75.08191
1918.00000	132.71155
1920.00000	149.13171
1922.00000	126.28957
1924.00000	225.67908
1926.00000	199.83640
1928.00000	127.48947
1930.00000	122.92720
1932.00000	16.13786
1934.00000	160.31377
1936.00000	221.18967
1938.00000	109.26257
1940.00000	189.31729
1942.00000	161.35526
1944.00000	145.23328
1946.00000	210.66684
1948.00000	226.18002
1950.00000	145.74068
1952.00000	188.54202
1954.00000	220.78293
1956.00000	162.03967
1958.00000	198.51918
1960.00000	172.71596
1962.00000	161.63095
1964.00000	189.10220
1966.00000	185.87903
1968.00000	213.66719
1970.00000	158.51956
1972.00000	108.95403
1974.00000	173.62231
1976.00000	230.58035
1978.00000	213.47723
1980.00000	171.85118
1982.00000	123.27644
1984.00000	77.08778
1986.00000	164.62817
1988.00000	135.98070
1990.00000	92.06302
1992.00000	180.55463
1994.00000	101.61832
1996.00000	123.83432
1998.00000	122.97274
2000.00000	54.63743
2002.00000	25.92167
2004.00000	27.55611
2006.00000	37.49994
2008.00000	46.12069
2010.00000	58.97108
2012.00000	36.92390
2014.00000	38.57618
2016.00000	55.14114
2018.00000	57.00734
2020.00000	100.83063
2022.00000	90.01981
2024.00000	62.83349
2026.00000	81.76067
2028.00000	91.89313
2030.00000	73.97436
2032.00000	85.21600
2034.00000	97.74081
2036.00000	46.08417
2038.00000	43.47460
2040.00000	91.43017
2042.00000	105.38194
2044.00000	74.46057
2046.00000	106.27425
2048.00000	86.02400
2050.00000	62.01649
2052.00000	100.76212
2054.00000	121.75176
2056.00000	90.03437
2058.00000	72.69235
2060.00000	95.98341
2062.00000	122.34167
2064.00000	146.01059
2066.00000	108.96754
2068.00000	72.12383
2070.00000	100.60630
2072.00000	108.92023
2074.00000	87.18280
2076.00000	69.75121
2078.00000	79.54334
2080.00000	96.05030
2082.00000	75.04376
2084.00000	62.98780
2086.00000	92.60043
2088.00000	126.89740
2090.00000	111.69944
2092.00000	77.01852
2094.00000	60.31683
2096.00000	60.88701
2098.00000	55.33208
2100.00000	64.37154
2102.00000	65.59910
2104.00000	69.62824
2106.00000	117.59451
2108.00000	135.67284
2110.00000	101.48436
2112.00000	75.33894
2114.00000	97.90950
2116.00000	92.34009
2118.00000	71.01811
2120.00000	88.50066
2122.00000	124.21718
2124.00000	83.22550
2126.00000	43.56358
2128.00000	94.17023
2130.00000	147.98302
2132.00000	77.44330
2134.00000	79.14565
2136.00000	91.11740
2138.00000	84.42089
2140.00000	107.41913
2142.00000	102.22090
2144.00000	72.86842
2146.00000	84.08054
2148.00000	118.84541
2150.00000	76.12818
2152.00000	75.95491
2154.00000	121.64507
2156.00000	125.03298
2158.00000	62.78326
2160.00000	62.97295
2162.00000	110.79380
2164.00000	127.23711
2166.00000	95.95925
2168.00000	89.78955
2170.00000	78.72610
2172.00000	121.05606
2174.00000	189.02199
2176.00000	127.47417
2178.00000	77.66425
2180.00000	97.52401
2182.00000	115.39238
2184.00000	72.28091
2186.00000	71.64632
2188.00000	154.55333
2190.00000	192.38377
2192.00000	108.43254
2194.00000	78.71696
2196.00000	135.71057
2198.00000	159.86945
2200.00000	119.28237
2202.00000	120.69825
2204.00000	94.22172
2206.00000	71.71135
2208.00000	78.43817
2210.00000	80.96901
2212.00000	79.96902
2214.00000	102.67602
2216.00000	126.86872
2218.00000	120.04704
2220.00000	108.20117
2222.00000	119.37453
2224.00000	110.22578
2226.00000	69.94679
2228.00000	68.17715
2230.00000	120.20566
2232.00000	126.94986
2234.00000	80.57843
2236.00000	79.44952
2238.00000	132.16681
2240.00000	93.50761
2242.00000	35.06404
2244.00000	67.78533
2246.00000	86.09589
2248.00000	96.20486
2250.00000	94.65411
2252.00000	87.34945
2254.00000	116.03535
2256.00000	190.04796
2258.00000	177.60391
2260.00000	95.65981
2262.00000	77.53368
2264.00000	95.81947
2266.00000	78.49885
2268.00000	62.26167
2270.00000	99.00253
2272.00000	140.60606
2274.00000	152.03433
2276.00000	151.53928
2278.00000	158.49640
2280.00000	151.12434
2282.00000	95.40033
2284.00000	74.72485
2286.00000	117.66067
2288.00000	163.95613
2290.00000	164.03516
2292.00000	105.23660
2294.00000	102.40855
2296.00000	157.91492
2298.00000	96.70565
2300.00000	65.87500
2302.00000	110.82010
2304.00000	147.82076
2306.00000	117.59396
2308.00000	108.47070
2310.00000	101.12592
2312.00000	83.16242
2314.00000	74.53892
2316.00000	68.33484
2318.00000	71.33709
2320.00000	110.16268
2322.00000	143.86633
2324.00000	91.96812
2326.00000	71.78353
2328.00000	79.03541
2330.00000	69.59124
2332.00000	54.23506
2334.00000	61.52247
2336.00000	61.31301
2338.00000	54.98816
2340.00000	54.21207
2342.00000	32.04156
2344.00000	35.67358
2346.00000	35.50906
2348.00000	40.34773
2350.00000	109.55992
2352.00000	88.64536
2354.00000	34.60353
2356.00000	48.10181
2358.00000	110.51179
2360.00000	126.23543
2362.00000	96.03773
2364.00000	60.91262
2366.00000	64.25375
2368.00000	115.36716
2370.00000	106.41158
2372.00000	77.20255
2374.00000	79.31805
2376.00000	70.34164
2378.00000	74.17455
2380.00000	93.62802
2382.00000	96.70808
2384.00000	64.14306
2386.00000	43.07837
2388.00000	72.85820
2390.00000	106.38342
2392.00000	85.32637
2394.00000	51.56049
2396.00000	107.21599
2398.00000	164.14607
2400.00000	126.55010
2402.00000	59.52393
2404.00000	79.26031
2406.00000	97.97681
2408.00000	82.04494
2410.00000	97.71632
2412.00000	130.59636
2414.00000	120.25477
2416.00000	94.89922
2418.00000	102.59985
2420.00000	120.13604
2422.00000	143.24126
2424.00000	120.13181
2426.00000	85.19441
2428.00000	125.08423
2430.00000	131.67958
2432.00000	99.04977
2434.00000	84.05491
2436.00000	106.52066
2438.00000	118.70827
2440.00000	145.66852
2442.00000	136.69907
2444.00000	72.60566
2446.00000	60.92565
2448.00000	129.03395
2450.00000	156.84111
2452.00000	103.90903
2454.00000	86.61864
2456.00000	161.24020
2458.00000	124.51401
2460.00000	43.71875
2462.00000	107.75648
2464.00000	164.48569
2466.00000	127.44810
2468.00000	81.83865
2470.00000	97.51671
2472.00000	107.31472
2474.00000	93.46600
2476.00000	83.81885
2478.00000	97.95918
2480.00000	115.78345
2482.00000	98.94992
2484.00000	81.60912
2486.00000	85.64148
2488.00000	93.09395
2490.00000	84.36858
2492.00000	82.59742
2494.00000	83.17297
2496.00000	71.64021
2498.00000	65.86624
2500.00000	105.74272
2502.00000	112.79684
2504.00000	74.36987
2506.00000	72.07871
2508.00000	102.51788
2510.00000	94.31695
2512.00000	72.75854
2514.00000	99.23329
2516.00000	132.59001
2518.00000	104.52615
2520.00000	88.60300
2522.00000	122.15797
2524.00000	110.52493
2526.00000	50.12093
2528.00000	54.23235
2530.00000	120.45828
2532.00000	137.72044
2534.00000	113.19102
2536.00000	130.12234
2538.00000	156.14507
2540.00000	112.07876
2542.00000	44.85524
2544.00000	109.85020
2546.00000	148.43665
2548.00000	90.28590
2550.00000	117.02137
2552.00000	158.17384
2554.00000	131.87132
2556.00000	104.13466
2558.00000	145.56535
2560.00000	127.86465
2562.00000	128.33231
2564.00000	145.75294
2566.00000	135.49002
2568.00000	137.80347
2570.00000	138.19029
2572.00000	118.79316
2574.00000	94.57373
2576.00000	93.03618
2578.00000	95.27451
2580.00000	97.65136
2582.00000	96.83867
2584.00000	91.03609
2586.00000	94.37627
2588.00000	104.37644
2590.00000	81.40450
2592.00000	61.26576
2594.00000	135.63431
2596.00000	131.69778
2598.00000	92.12704
2600.00000	86.22630
2602.00000	78.84399
2604.00000	88.43079
2606.00000	73.74780
2608.00000	37.02997
2610.00000	41.49693
2612.00000	121.92538
2614.00000	187.95009
2616.00000	184.49701
2618.00000	148.95622
2620.00000	153.15198
2622.00000	168.73648
2624.00000	150.20261
2626.00000	113.43098
2628.00000	108.26219
2630.00000	107.89127
2632.00000	57.11512
2634.00000	73.10445
2636.00000	209.81918
2638.00000	212.36151
2640.00000	99.39333
2642.00000	58.10366
2644.00000	128.49051
2646.00000	141.72018
2648.00000	115.78587
2650.00000	91.41653
2652.00000	113.38107
2654.00000	177.67497
2656.00000	163.87262
2658.00000	76.12196
2660.00000	87.96698
2662.00000	198.30197
2664.00000	103.22002
2666.00000	71.36709
2668.00000	146.72792
2670.00000	170.74902
2672.00000	101.94081
2674.00000	110.68885
2676.00000	151.01765
2678.00000	128.85777
2680.00000	63.72054
2682.00000	59.27610
2684.00000	122.83826
2686.00000	166.73421
2688.00000	149.94832
2690.00000	152.76501
2692.00000	157.33244
2694.00000	131.25018
2696.00000	111.83562
2698.00000	152.65913
2700.00000	161.35878
2702.00000	183.04138
2704.00000	224.10553
2706.00000	214.40051
2708.00000	153.90697
2710.00000	117.60373
2712.00000	132.06985
2714.00000	154.19766
2716.00000	151.01447
2718.00000	212.91286
2720.00000	249.31332
2722.00000	173.66124
2724.00000	79.70142
2726.00000	118.54225
2728.00000	141.29463
2730.00000	102.39714
2732.00000	110.87558
2734.00000	160.01266
2736.00000	188.86151
2738.00000	189.50967
2740.00000	171.33801
2742.00000	123.96259
2744.00000	102.38300
2746.00000	115.87903
2748.00000	147.30334
2750.00000	179.41348
2752.00000	188.85970
2754.00000	203.89268
2756.00000	216.71223
2758.00000	202.17329
2760.00000	186.46945
2762.00000	164.19627
2764.00000	142.47864
2766.00000	152.76840
2768.00000	207.37357
2770.00000	220.83159
2772.00000	143.47131
2774.00000	60.95735
2776.00000	95.59027
2778.00000	172.58240
2780.00000	171.94301
2782.00000	137.79321
2784.00000	175.28723
2786.00000	221.81841
2788.00000	131.81718
2790.00000	67.01512
2792.00000	120.91405
2794.00000	126.57350
2796.00000	212.76495
2798.00000	241.96068
2800.00000	184.26251
2802.00000	182.92693
2804.00000	172.04582
2806.00000	176.38640
2808.00000	189.28352
2810.00000	177.41135
2812.00000	175.99063
2814.00000	252.30215
2816.00000	260.91431
2818.00000	189.24318
2820.00000	224.92154
2822.00000	180.73767
2824.00000	140.97023
2826.00000	202.36732
2828.00000	276.67853
2830.00000	242.38631
2832.00000	255.88309
2834.00000	233.93611
2836.00000	86.02501
2838.00000	71.56519
2840.00000	222.69437
2842.00000	197.08826
2844.00000	98.38445
2846.00000	347.52740
2848.00000	260.42505
2850.00000	166.81850
2852.00000	226.68320
2854.00000	157.60684
2856.00000	115.17237
2858.00000	186.99091
2860.00000	220.80231
2862.00000	159.51259
2864.00000	201.80849
2866.00000	159.21030
2868.00000	94.09444
2870.00000	120.09058
2872.00000	162.82884
2874.00000	133.44101
2876.00000	210.10185
2878.00000	278.02332
2880.00000	162.89923
2882.00000	187.57430
2884.00000	198.32774
2886.00000	125.99336
2888.00000	133.47984
2890.00000	302.73340
2892.00000	222.99615
2894.00000	178.05757
2896.00000	246.21913
2898.00000	101.75100
2900.00000	124.36372
2902.00000	288.18250
2904.00000	280.38016
2906.00000	115.77044
2908.00000	294.20813
2910.00000	237.55588
2912.00000	159.54825
2914.00000	289.29227
2916.00000	144.37816
2918.00000	199.34297
2920.00000	272.02808
2922.00000	204.50320
2924.00000	209.99313
2926.00000	197.80019
2928.00000	124.86899
2930.00000	161.40967
2932.00000	307.25302
2934.00000	187.17499
2936.00000	187.97920
2938.00000	206.85767
2940.00000	108.32872
2942.00000	163.78966
2944.00000	178.29274
2946.00000	173.34082
2948.00000	247.99161
2950.00000	315.13181
2952.00000	168.13710
2954.00000	258.90533
2956.00000	352.17755
2958.00000	161.28134
2960.00000	285.14624
2962.00000	242.30443
2964.00000	251.28426
2966.00000	387.31564
2968.00000	187.90765
2970.00000	325.44193
2972.00000	375.14957
2974.00000	208.05205
2976.00000	276.43381
2978.00000	352.77481
2980.00000	244.56700
2982.00000	212.82399
2984.00000	352.20444
2986.00000	234.61665
2988.00000	326.64941
2990.00000	336.30701
2992.00000	167.05125
2994.00000	338.28671
2996.00000	455.72534
2998.00000	406.37103
3000.00000	286.92618
3002.00000	233.31987
3004.00000	348.68713
3006.00000	323.21066
3008.00000	291.07260
3010.00000	424.35977
3012.00000	416.84824
3014.00000	382.03354
3016.00000	388.92810
3018.00000	374.33890
3020.00000	353.70709
3022.00000	557.30408
3024.00000	359.51352
3026.00000	187.94962
3028.00000	586.54279
3030.00000	283.20291
3032.00000	323.09979
3034.00000	523.57990
3036.00000	302.61356
3038.00000	329.94354
3040.00000	442.12723
3042.00000	451.58524
3044.00000	388.78717
3046.00000	383.64673
3048.00000	440.28574
3050.00000	373.46335
3052.00000	290.33310
3054.00000	424.72800
3056.00000	596.23682
3058.00000	418.25473
3060.00000	339.20386
3062.00000	487.59805
3064.00000	198.45172
3066.00000	301.12012
3068.00000	512.39105
3070.00000	417.41931
3072.00000	273.84177
3074.00000	305.42911
3076.00000	284.13876
3078.00000	251.50903
3080.00000	375.74884
3082.00000	420.64963
3084.00000	289.29364
3086.00000	313.54950
3088.00000	423.01605
3090.00000	153.51956
3092.00000	349.64490
3094.00000	437.85690
3096.00000	289.34705
3098.00000	479.52750
3100.00000	365.66827
3102.00000	276.35327
3104.00000	321.92154
3106.00000	357.69391
3108.00000	497.65393
3110.00000	271.37915
3112.00000	341.37225
3114.00000	647.67493
3116.00000	152.35416
3118.00000	403.38611
3120.00000	494.18796
3122.00000	179.76997
3124.00000	393.24625
3126.00000	387.65497
3128.00000	297.48550
3130.00000	289.03918
3132.00000	401.21432
3134.00000	655.37500
3136.00000	293.09048
3138.00000	216.11736
3140.00000	545.27301
3142.00000	90.27436
3144.00000	208.45079
3146.00000	249.96799
3148.00000	214.86424
3150.00000	624.20343
3152.00000	177.63213
3154.00000	237.84431
3156.00000	488.37354
3158.00000	260.35138
3160.00000	642.39044
3162.00000	372.43375
3164.00000	120.42381
3166.00000	334.66031
3168.00000	161.77507
3170.00000	325.88370
3172.00000	555.11053
3174.00000	489.69696
3176.00000	314.89511
3178.00000	355.82864
3180.00000	374.33353
3182.00000	448.67328
3184.00000	574.38031
3186.00000	385.08539
3188.00000	396.83191
3190.00000	341.95618
3192.00000	345.16232
3194.00000	773.67725
3196.00000	371.78384
3198.00000	443.15616
3200.00000	700.40399
