369.024689 40.000000
371.295044 -58.000000
373.564575 34.000000
375.833252 63.000000
378.101074 -94.000000
380.368073 59.000000
382.634186 67.000000
384.899475 -25.000000
387.163910 17.000000
389.427490 63.000000
391.690247 11.000000
393.952118 -14.000000
396.213196 -76.000000
398.473389 37.000000
400.732758 -43.000000
402.991272 -51.000000
405.248932 -59.000000
407.505768 -87.000000
409.761749 -57.000000
412.016876 20.000000
414.271179 -53.000000
416.524628 15.000000
418.777252 -25.000000
421.029022 6.000000
423.279938 25.000000
425.530029 78.000000
427.779297 109.000000
430.027679 -45.000000
432.275269 38.000000
434.522003 70.000000
436.767883 13.000000
439.012939 -43.000000
441.257141 -24.000000
443.500519 -6.000000
445.743042 -42.000000
447.984741 25.000000
450.225616 -79.000000
452.465637 84.000000
454.704803 93.000000
456.943176 -56.000000
459.180664 14.000000
461.417358 -24.000000
463.653198 15.000000
465.888214 -28.000000
468.122375 -89.000000
470.355713 -25.000000
472.588226 104.000000
474.819916 113.000000
477.050751 123.000000
479.280762 65.000000
481.509949 36.000000
483.738281 7.000000
485.965790 121.000000
488.192474 106.000000
490.418335 85.000000
492.643341 -27.000000
494.867523 -22.000000
497.090881 -65.000000
499.313416 -90.000000
501.535126 -70.000000
503.755981 75.000000
505.976044 -93.000000
508.195251 -61.000000
510.413635 160.000000
512.631226 106.000000
514.847961 48.000000
517.063843 -45.000000
519.278931 -53.000000
521.493164 -30.000000
523.706604 36.000000
525.919189 -139.000000
528.130981 43.000000
530.341919 14.000000
532.552063 117.000000
534.761353 23.000000
536.969849 12.000000
539.177490 -6.000000
541.384338 -17.000000
543.590332 -37.000000
545.795532 -34.000000
547.999878 -51.000000
550.203430 51.000000
552.406189 75.000000
554.608093 40.000000
556.809143 -3.000000
559.009399 -46.000000
561.208862 -20.000000
563.407471 -8.000000
565.605286 4.000000
567.802307 -36.000000
569.998474 -97.000000
572.193787 95.000000
574.388306 91.000000
576.582031 -75.000000
578.774963 7.000000
580.967041 -15.000000
583.158264 -26.000000
585.348694 -37.000000
587.538330 -74.000000
589.727173 -25.000000
591.915161 44.000000
594.102356 29.000000
596.288696 14.000000
598.474304 39.000000
600.658997 68.000000
602.842957 -44.000000
605.026062 114.000000
607.208374 35.000000
609.389832 57.000000
611.570557 38.000000
613.750427 35.000000
615.929443 33.000000
618.107666 36.000000
620.285156 40.000000
622.461731 -31.000000
624.637573 -102.000000
626.812561 -42.000000
628.986755 101.000000
631.160156 111.000000
633.332703 -13.000000
635.504456 31.000000
637.675415 -43.000000
639.845581 11.000000
642.014954 11.000000
644.183472 39.000000
646.351196 21.000000
648.518127 -3.000000
650.684265 12.000000
652.849548 6.000000
655.014038 105.000000
657.177734 92.000000
659.340637 7.000000
661.502747 38.000000
663.664001 69.000000
665.824524 -7.000000
667.984192 42.000000
670.143066 92.000000
672.301147 41.000000
674.458374 -69.000000
676.614868 -99.000000
678.770508 -81.000000
680.925415 -63.000000
683.079468 -28.000000
685.232727 33.000000
687.385193 -7.000000
689.536865 -10.000000
691.687744 83.000000
693.837769 17.000000
695.987061 -49.000000
698.135498 -12.000000
700.283142 -97.000000
702.430054 13.000000
704.576111 1.000000
706.721375 34.000000
708.865845 -62.000000
711.009521 -5.000000
713.152405 -41.000000
715.294495 95.000000
717.435791 19.000000
719.576294 -62.000000
721.716003 44.000000
723.854858 -4.000000
725.992981 -52.000000
728.130310 -17.000000
730.266846 -1.000000
732.402527 14.000000
734.537476 19.000000
736.671631 0.000000
738.804993 -17.000000
740.937500 -34.000000
743.069275 -33.000000
745.200256 -71.000000
747.330444 -109.000000
749.459839 -148.000000
751.588440 24.000000
753.716248 39.000000
755.843262 -129.000000
757.969482 -25.000000
760.094910 -97.000000
762.219543 -25.000000
764.343384 47.000000
766.466492 63.000000
768.588745 -2.000000
770.710266 31.000000
772.830994 22.000000
774.950867 14.000000
777.070007 -28.000000
779.188354 -108.000000
781.305908 -6.000000
783.422729 -20.000000
785.538696 -35.000000
787.653870 -62.000000
789.768311 -133.000000
791.881958 -86.000000
793.994812 -57.000000
796.106873 37.000000
798.218140 13.000000
800.328613 29.000000
802.438354 27.000000
804.547302 -61.000000
806.655457 -50.000000
808.762817 26.000000
810.869385 65.000000
812.975159 51.000000
815.080200 -57.000000
817.184448 -54.000000
819.287903 -50.000000
821.390564 -47.000000
823.492493 -86.000000
825.593628 20.000000
827.693970 109.000000
829.793518 126.000000
831.892273 144.000000
833.990295 45.000000
836.087524 137.000000
838.183960 -37.000000
840.279663 46.000000
842.374573 -2.000000
844.468689 -51.000000
846.562012 -69.000000
848.654602 28.000000
850.746338 -122.000000
852.837402 -138.000000
854.927612 -154.000000
857.017090 -107.000000
859.105774 -60.000000
861.193665 -13.000000
863.280823 12.000000
865.367188 86.000000
867.452759 128.000000
869.537598 28.000000
871.621643 67.000000
873.704956 107.000000
875.787415 73.000000
877.869141 21.000000
879.950134 -30.000000
882.030334 11.000000
884.109741 36.000000
886.188354 70.000000
888.266235 87.000000
890.343384 9.000000
892.419678 -37.000000
894.495239 3.000000
896.570068 -53.000000
898.644104 62.000000
900.717346 -31.000000
902.789856 38.000000
904.861572 74.000000
906.932556 25.000000
909.002747 50.000000
911.072144 75.000000
913.140808 24.000000
915.208679 -26.000000
917.275818 -27.000000
919.342163 -85.000000
921.407776 -72.000000
923.472595 -12.000000
925.536682 2.000000
927.599976 16.000000
929.662537 90.000000
931.724304 46.000000
933.785278 110.000000
935.845520 84.000000
937.905029 37.000000
939.963745 108.000000
942.021667 134.000000
944.078918 54.000000
946.135315 -52.000000
948.190979 -35.000000
950.245911 -19.000000
952.300049 -107.000000
954.353455 -107.000000
956.406067 -1.000000
958.457947 -56.000000
960.509033 4.000000
962.559387 -27.000000
964.609009 77.000000
966.657837 -48.000000
968.705933 -94.000000
970.753235 49.000000
972.799805 -9.000000
974.845581 26.000000
976.890625 9.000000
978.934937 4.000000
980.978455 -111.000000
983.021240 -84.000000
985.063232 -74.000000
987.104492 13.000000
989.145020 29.000000
991.184753 -90.000000
993.223755 -68.000000
995.262024 -1.000000
997.299500 52.000000
999.336243 105.000000
1001.372253 161.000000
1003.407471 91.000000
1005.441956 -31.000000
1007.475647 -42.000000
1009.508606 -12.000000
1011.540833 -129.000000
1013.572327 -15.000000
1015.603027 148.000000
1017.632996 149.000000
1019.662231 151.000000
1021.690674 65.000000
1023.718384 68.000000
1025.745361 -98.000000
1027.771606 17.000000
1029.796997 -38.000000
1031.821777 7.000000
1033.845703 -73.000000
1035.868896 -48.000000
1037.891357 -23.000000
1039.913086 -75.000000
1041.934082 36.000000
1043.954346 -7.000000
1045.973755 62.000000
1047.992554 26.000000
1050.010498 -9.000000
1052.027710 91.000000
1054.044312 66.000000
1056.060059 42.000000
1058.075073 -6.000000
1060.089233 35.000000
1062.102783 4.000000
1064.115601 -29.000000
1066.127563 9.000000
1068.138916 -45.000000
1070.149414 54.000000
1072.159180 -19.000000
1074.168213 57.000000
1076.176514 59.000000
1078.184082 98.000000
1080.190918 83.000000
1082.197021 69.000000
1084.202393 40.000000
1086.207031 2.000000
1088.210815 52.000000
1090.213989 -100.000000
1092.216309 136.000000
1094.218018 147.000000
1096.218872 158.000000
1098.218994 95.000000
1100.218506 62.000000
1102.217163 -106.000000
1104.215088 -105.000000
1106.212280 -34.000000
1108.208740 76.000000
1110.204468 66.000000
1112.199463 57.000000
1114.193726 34.000000
1116.187256 11.000000
1118.180054 24.000000
1120.172119 26.000000
1122.163452 -12.000000
1124.153931 104.000000
1126.143799 39.000000
1128.132935 -37.000000
1130.121338 -13.000000
1132.108887 10.000000
1134.095825 103.000000
1136.082031 114.000000
1138.067383 61.000000
1140.052124 9.000000
1142.036133 66.000000
1144.019287 46.000000
1146.001831 92.000000
1147.983643 33.000000
1149.964600 26.000000
1151.944946 20.000000
1153.924561 -41.000000
1155.903320 -3.000000
1157.881470 35.000000
1159.858887 -78.000000
1161.835449 -71.000000
1163.811401 -64.000000
1165.786621 19.000000
1167.761108 6.000000
1169.734863 -6.000000
1171.707764 98.000000
1173.680054 121.000000
1175.651611 144.000000
1177.622437 174.000000
1179.592529 132.000000
1181.561890 -117.000000
1183.530518 -21.000000
1185.498535 -161.000000
1187.465698 -127.000000
1189.432129 18.000000
1191.397827 -1.000000
1193.362915 -71.000000
1195.327148 -45.000000
1197.290649 45.000000
1199.253540 63.000000
1201.215698 81.000000
1203.177002 30.000000
1205.137695 80.000000
1207.097656 30.000000
1209.056885 2.000000
1211.015381 49.000000
1212.973145 -9.000000
1214.930176 25.000000
1216.886475 -18.000000
1218.842041 49.000000
1220.796875 -19.000000
1222.751099 27.000000
1224.704468 47.000000
1226.657227 12.000000
1228.609253 48.000000
1230.560547 82.000000
1232.511108 20.000000
1234.460938 -58.000000
1236.410034 13.000000
1238.358398 14.000000
1240.306030 15.000000
1242.253052 20.000000
1244.199219 -68.000000
1246.144775 -30.000000
1248.089600 -50.000000
1250.033691 76.000000
1251.977051 21.000000
1253.919678 -34.000000
1255.861572 -107.000000
1257.802856 109.000000
1259.743408 106.000000
1261.683105 -129.000000
1263.622192 -69.000000
1265.560547 -95.000000
1267.498169 -29.000000
1269.435181 -25.000000
1271.371338 52.000000
1273.306885 -88.000000
1275.241577 -23.000000
1277.175659 -111.000000
1279.109009 -124.000000
1281.041626 -27.000000
1282.973633 -74.000000
1284.904785 -71.000000
1286.835327 -63.000000
1288.765137 93.000000
1290.694214 11.000000
1292.622559 -3.000000
1294.550171 -17.000000
1296.477173 -10.000000
1298.403442 -4.000000
1300.328979 44.000000
1302.253784 121.000000
1304.177856 144.000000
1306.101196 -40.000000
1308.023926 112.000000
1309.945923 114.000000
1311.867188 -25.000000
1313.787720 -24.000000
1315.707642 -23.000000
1317.626709 -5.000000
1319.545166 57.000000
1321.462891 -55.000000
1323.379883 35.000000
1325.296265 -117.000000
1327.211792 -111.000000
1329.126709 124.000000
1331.040894 -43.000000
1332.954468 19.000000
1334.867188 -27.000000
1336.779297 -41.000000
1338.690674 -55.000000
1340.601318 -37.000000
1342.511353 -27.000000
1344.420532 -18.000000
1346.329102 62.000000
1348.236938 -12.000000
1350.144165 57.000000
1352.050537 17.000000
1353.956299 -23.000000
1355.861328 6.000000
1357.765747 24.000000
1359.669312 42.000000
1361.572266 55.000000
1363.474487 -5.000000
1365.376099 17.000000
1367.276855 -24.000000
1369.177002 78.000000
1371.076416 120.000000
1372.975220 162.000000
1374.873169 152.000000
1376.770508 52.000000
1378.667114 -47.000000
1380.563110 -38.000000
1382.458374 68.000000
1384.352905 67.000000
1386.246704 66.000000
1388.139893 79.000000
1390.032227 86.000000
1391.924072 94.000000
1393.815063 127.000000
1395.705444 100.000000
1397.595093 -26.000000
1399.484009 43.000000
1401.372314 113.000000
1403.259888 103.000000
1405.146729 65.000000
1407.032959 27.000000
1408.918335 -23.000000
1410.803223 2.000000
1412.687256 28.000000
1414.570679 -56.000000
1416.453369 -60.000000
1418.335327 -65.000000
1420.216675 -80.000000
1422.097290 59.000000
1423.977173 67.000000
1425.856445 75.000000
1427.734985 26.000000
1429.612793 -10.000000
1431.489990 125.000000
1433.366455 -35.000000
1435.242188 -24.000000
1437.117310 -31.000000
1438.991699 -47.000000
1440.865356 -64.000000
1442.738403 -91.000000
1444.610718 -51.000000
1446.482422 -12.000000
1448.353271 -67.000000
1450.223511 -93.000000
1452.093140 49.000000
1453.962036 -84.000000
1455.830200 -46.000000
1457.697632 43.000000
1459.564453 -33.000000
1461.430664 55.000000
1463.296021 -37.000000
1465.160767 -8.000000
1467.024902 5.000000
1468.888184 134.000000
1470.750854 24.000000
1472.612915 30.000000
1474.474243 -8.000000
1476.334839 -46.000000
1478.194824 13.000000
1480.054077 138.000000
1481.912598 64.000000
1483.770508 -10.000000
1485.627686 -46.000000
1487.484253 -14.000000
1489.340088 18.000000
1491.195190 -58.000000
1493.049683 101.000000
1494.903442 148.000000
1496.756592 196.000000
1498.609009 129.000000
1500.460693 62.000000
1502.311768 -7.000000
1504.162109 21.000000
1506.011841 3.000000
1507.860840 91.000000
1509.709229 53.000000
1511.556885 -16.000000
1513.403809 -18.000000
1515.250122 24.000000
1517.095703 67.000000
1518.940674 123.000000
1520.784912 40.000000
1522.628418 0.000000
1524.471313 -39.000000
1526.313599 -95.000000
1528.155029 120.000000
1529.995972 29.000000
1531.836060 -62.000000
1533.675659 1.000000
1535.514404 -85.000000
1537.352539 33.000000
1539.190063 69.000000
1541.026855 105.000000
1542.862915 12.000000
1544.698364 131.000000
1546.533081 47.000000
1548.367188 14.000000
1550.200684 -18.000000
1552.033325 -79.000000
1553.865356 -5.000000
1555.696777 -50.000000
1557.527466 15.000000
1559.357544 41.000000
1561.186890 45.000000
1563.015625 -74.000000
1564.843628 -17.000000
1566.670898 27.000000
1568.497559 71.000000
1570.323608 22.000000
1572.148926 73.000000
1573.973633 15.000000
1575.797607 19.000000
1577.620850 -98.000000
1579.443481 -61.000000
1581.265503 -25.000000
1583.086792 -12.000000
1584.907349 110.000000
1586.727295 20.000000
1588.546631 38.000000
1590.365234 56.000000
1592.183105 30.000000
1594.000366 -51.000000
1595.817017 -51.000000
1597.632935 -51.000000
1599.448242 -34.000000
1601.262817 -24.000000
1603.076782 -20.000000
1604.890015 -16.000000
1606.702637 -97.000000
1608.514526 -36.000000
1610.325806 24.000000
1612.136353 56.000000
1613.946289 89.000000
1615.755493 142.000000
1617.564087 51.000000
1619.372070 -20.000000
1621.179321 -64.000000
1622.985840 -42.000000
1624.791870 -20.000000
1626.597046 63.000000
1628.401733 22.000000
1630.205566 112.000000
1632.008911 47.000000
1633.811523 7.000000
1635.613403 60.000000
1637.414673 95.000000
1639.215332 -78.000000
1641.015259 40.000000
1642.814575 47.000000
1644.613159 65.000000
1646.411133 54.000000
1648.208496 -57.000000
1650.005127 -10.000000
1651.801025 -21.000000
1653.596313 -32.000000
1655.390991 -10.000000
1657.185059 101.000000
1658.978394 107.000000
1660.770996 20.000000
1662.562988 159.000000
1664.354370 7.000000
1666.145020 161.000000
1667.935059 98.000000
1669.724487 35.000000
1671.513184 -32.000000
1673.301270 -3.000000
1675.088623 -78.000000
1676.875366 -36.000000
1678.661499 -52.000000
1680.446899 -40.000000
1682.231689 70.000000
1684.015747 27.000000
1685.799194 90.000000
1687.582031 85.000000
1689.364136 -93.000000
1691.145630 -56.000000
1692.926392 11.000000
1694.706543 -16.000000
1696.486084 -43.000000
1698.265015 73.000000
1700.043213 30.000000
1701.820679 139.000000
1703.597656 45.000000
1705.373901 17.000000
1707.149414 -43.000000
1708.924316 37.000000
1710.698608 117.000000
1712.472290 55.000000
1714.245239 -6.000000
1716.017578 -29.000000
1717.789185 1.000000
1719.560181 -91.000000
1721.330566 -48.000000
1723.100342 6.000000
1724.869385 61.000000
1726.637695 21.000000
1728.405518 -130.000000
1730.172607 -199.000000
1731.939087 -15.000000
1733.704834 -64.000000
1735.469971 -114.000000
1737.234497 -199.000000
1738.998413 -188.000000
1740.761597 16.000000
1742.524048 1.000000
1744.286011 -132.000000
1746.047241 -106.000000
1747.807861 4.000000
1749.567871 114.000000
1751.327148 106.000000
1753.085815 49.000000
1754.843750 34.000000
1756.601196 21.000000
1758.357910 8.000000
1760.113892 15.000000
1761.869385 9.000000
1763.624146 77.000000
1765.378296 -29.000000
1767.131714 51.000000
1768.884644 84.000000
1770.636719 148.000000
1772.388306 -62.000000
1774.139282 13.000000
1775.889526 -96.000000
1777.639038 6.000000
1779.388062 -58.000000
1781.136353 20.000000
1782.884033 -73.000000
1784.631104 0.000000
1786.377441 65.000000
1788.123291 131.000000
1789.868286 148.000000
1791.612793 134.000000
1793.356567 121.000000
1795.099731 121.000000
1796.842285 133.000000
1798.584229 58.000000
1800.325439 -33.000000
1802.066040 76.000000
1803.806030 -122.000000
1805.545410 -22.000000
1807.284058 -39.000000
1809.022095 -4.000000
1810.759521 74.000000
1812.496216 -3.000000
1814.232422 -80.000000
1815.967896 -66.000000
1817.702759 25.000000
1819.436890 -50.000000
1821.170532 25.000000
1822.903442 10.000000
1824.635742 -5.000000
1826.367432 -54.000000
1828.098389 -59.000000
1829.828735 -65.000000
1831.558472 -61.000000
1833.287598 -57.000000
1835.016113 5.000000
1836.743896 -78.000000
1838.471069 -44.000000
1840.197632 -10.000000
1841.923584 -11.000000
1843.648804 -13.000000
1845.373535 -17.000000
1847.097534 -62.000000
1848.820923 -25.000000
1850.543579 12.000000
1852.265747 43.000000
1853.987183 32.000000
1855.708008 21.000000
1857.428223 70.000000
1859.147827 203.000000
1860.866699 -4.000000
1862.585083 -20.000000
1864.302734 -128.000000
1866.019775 -55.000000
1867.736206 -104.000000
1869.451904 -153.000000
1871.167114 -90.000000
1872.881592 142.000000
1874.595459 37.000000
1876.308716 135.000000
1878.021240 40.000000
1879.733276 55.000000
1881.444580 51.000000
1883.155396 -23.000000
1884.865479 10.000000
1886.574829 7.000000
1888.283691 5.000000
1889.991943 50.000000
1891.699463 50.000000
1893.406372 -77.000000
1895.112671 -36.000000
1896.818359 -54.000000
1898.523438 10.000000
1900.227905 -12.000000
1901.931641 -35.000000
1903.634888 -102.000000
1905.337402 -6.000000
1907.039307 86.000000
1908.740601 5.000000
1910.441284 42.000000
1912.141235 -43.000000
1913.840698 26.000000
1915.539429 64.000000
1917.237549 -4.000000
1918.935059 89.000000
1920.631958 -42.000000
1922.328247 22.000000
1924.023926 -119.000000
1925.718994 -27.000000
1927.413330 -26.000000
1929.107056 -12.000000
1930.800293 170.000000
1932.492798 -146.000000
1934.184692 66.000000
1935.875977 71.000000
1937.566650 77.000000
1939.256592 -27.000000
1940.946045 15.000000
1942.634766 -74.000000
1944.322998 -34.000000
1946.010498 -90.000000
1947.697388 -59.000000
1949.383789 -54.000000
1951.069458 47.000000
1952.754395 22.000000
1954.438843 72.000000
1956.122681 86.000000
1957.805908 100.000000
1959.488403 155.000000
1961.170410 148.000000
1962.851685 37.000000
1964.532349 -103.000000
1966.212524 -99.000000
1967.891968 -43.000000
1969.570801 -62.000000
1971.249023 57.000000
1972.926636 -11.000000
1974.603638 54.000000
1976.280029 57.000000
1977.955688 132.000000
1979.630859 208.000000
1981.305420 64.000000
1982.979248 -20.000000
1984.652588 -104.000000
1986.325195 -12.000000
1987.997314 46.000000
1989.668701 -18.000000
1991.339478 -69.000000
1993.009644 14.000000
1994.679321 27.000000
1996.348267 41.000000
1998.016602 68.000000
1999.684326 95.000000
2001.351440 82.000000
2003.017944 47.000000
2004.683838 12.000000
2006.349121 -27.000000
2008.013794 165.000000
2009.677856 209.000000
2011.341187 -105.000000
2013.004028 -20.000000
2014.666260 -66.000000
2016.327881 -54.000000
2017.988770 -43.000000
2019.649170 -55.000000
2021.308960 44.000000
2022.968018 -54.000000
2024.626587 -152.000000
2026.284546 -82.000000
2027.941772 -13.000000
2029.598511 89.000000
2031.254517 99.000000
2032.910034 109.000000
2034.564941 213.000000
2036.219116 149.000000
2037.872803 85.000000
2039.525757 69.000000
2041.178223 -51.000000
2042.829956 -13.000000
2044.481201 25.000000
2046.131836 35.000000
2047.781738 -6.000000
2049.431152 -47.000000
2051.079834 -32.000000
2052.728027 -17.000000
2054.375488 37.000000
2056.022461 91.000000
2057.668701 57.000000
2059.314453 -63.000000
2060.959717 -11.000000
2062.604248 47.000000
2064.248047 106.000000
2065.891357 99.000000
2067.533936 38.000000
2069.176025 -22.000000
2070.817627 17.000000
2072.458496 56.000000
2074.098633 116.000000
2075.738281 -14.000000
2077.377441 -144.000000
2079.015869 -118.000000
2080.653564 -42.000000
2082.290771 -8.000000
2083.927490 224.000000
2085.563477 258.000000
2087.198975 41.000000
2088.833740 27.000000
2090.468018 13.000000
2092.101562 36.000000
2093.734619 68.000000
2095.366943 -48.000000
2096.998779 -80.000000
2098.629883 97.000000
2100.260498 39.000000
2101.890381 176.000000
2103.519775 54.000000
2105.148682 -114.000000
2106.776855 -71.000000
2108.404297 32.000000
2110.031494 117.000000
2111.657715 81.000000
2113.283447 23.000000
2114.908691 -35.000000
2116.533203 16.000000
2118.157227 44.000000
2119.780518 73.000000
2121.403320 32.000000
2123.025635 30.000000
2124.647217 29.000000
2126.268066 61.000000
2127.888428 29.000000
2129.508301 -3.000000
2131.127441 22.000000
2132.746094 -13.000000
2134.364014 -101.000000
2135.981445 -77.000000
2137.598145 -175.000000
2139.214355 -186.000000
2140.830078 -197.000000
2142.445068 41.000000
2144.059326 41.000000
2145.673096 41.000000
2147.286377 111.000000
2148.898926 61.000000
2150.510986 12.000000
2152.122314 24.000000
2153.733154 114.000000
2155.343506 204.000000
2156.953125 158.000000
2158.562012 -41.000000
2160.170410 28.000000
2161.778320 -26.000000
2163.385498 48.000000
2164.992188 83.000000
2166.598389 179.000000
2168.203857 66.000000
2169.808594 41.000000
2171.412842 17.000000
2173.016602 -53.000000
2174.619629 -43.000000
2176.222168 -33.000000
2177.824219 -20.000000
2179.425537 67.000000
2181.026123 -11.000000
2182.626221 59.000000
2184.225830 155.000000
2185.824707 99.000000
2187.423096 -57.000000
2189.020996 0.000000
2190.618164 19.000000
2192.214600 -85.000000
2193.810547 -42.000000
2195.406006 29.000000
2197.000732 -106.000000
2198.594971 11.000000
2200.188721 95.000000
2201.781738 58.000000
2203.374268 22.000000
2204.966064 73.000000
2206.557373 45.000000
2208.147949 32.000000
2209.738037 19.000000
2211.327637 8.000000
2212.916504 -48.000000
2214.504883 -104.000000
2216.092529 -123.000000
2217.679688 -95.000000
2219.266357 -34.000000
2220.852295 26.000000
2222.437744 -55.000000
2224.022461 -13.000000
2225.606689 -17.000000
2227.190430 -192.000000
2228.773438 -104.000000
2230.355957 -24.000000
2231.937744 157.000000
2233.519043 -71.000000
2235.099609 -60.000000
2236.679932 210.000000
2238.259277 48.000000
2239.838379 -26.000000
2241.416748 -24.000000
2242.994385 -22.000000
2244.571533 -61.000000
2246.148193 -100.000000
2247.724365 -113.000000
2249.299805 201.000000
2250.874512 137.000000
2252.448975 -153.000000
2254.022461 68.000000
2255.595703 64.000000
2257.168213 97.000000
2258.740234 60.000000
2260.311523 -29.000000
2261.882324 52.000000
2263.452393 90.000000
2265.021973 128.000000
2266.591064 78.000000
2268.159668 141.000000
2269.727539 53.000000
2271.294678 26.000000
2272.861328 17.000000
2274.427490 8.000000
2275.993164 -62.000000
2277.558105 -132.000000
2279.122559 -141.000000
2280.686279 31.000000
2282.249512 47.000000
2283.812256 -46.000000
2285.374268 170.000000
2286.935791 187.000000
2288.496582 205.000000
2290.056885 197.000000
2291.616699 163.000000
2293.176025 129.000000
2294.734619 19.000000
2296.292480 -91.000000
2297.849854 -142.000000
2299.406738 -120.000000
2300.963135 -196.000000
2302.518799 -27.000000
2304.073975 -157.000000
2305.628418 -48.000000
2307.182617 31.000000
2308.735840 111.000000
2310.288818 116.000000
2311.841064 55.000000
2313.392578 -74.000000
2314.943848 -83.000000
2316.494385 98.000000
2318.044189 32.000000
2319.593750 172.000000
2321.142334 -11.000000
2322.690674 58.000000
2324.238281 -172.000000
2325.785400 -15.000000
2327.332031 -34.000000
2328.877930 185.000000
2330.423096 68.000000
2331.968018 -49.000000
2333.512207 195.000000
2335.055908 127.000000
2336.598877 130.000000
2338.141357 -114.000000
2339.683350 20.000000
2341.224609 -73.000000
2342.765381 -142.000000
2344.305664 34.000000
2345.845215 -32.000000
2347.384277 -82.000000
2348.922852 60.000000
2350.460693 -3.000000
2351.998047 138.000000
2353.534912 146.000000
2355.071045 118.000000
2356.606689 -51.000000
2358.141846 8.000000
2359.676270 34.000000
2361.210205 3.000000
2362.743652 -28.000000
2364.276367 -151.000000
2365.808594 -85.000000
2367.340088 -184.000000
2368.871338 -64.000000
2370.401855 -27.000000
2371.931641 -41.000000
2373.461182 29.000000
2374.989990 5.000000
2376.518066 28.000000
2378.045898 -298.000000
2379.572998 -149.000000
2381.099365 0.000000
2382.625488 -23.000000
2384.150879 -47.000000
2385.675781 -45.000000
2387.199951 44.000000
2388.723633 -76.000000
2390.246826 -92.000000
2391.769287 -109.000000
2393.291260 -68.000000
2394.812744 -13.000000
2396.333740 42.000000
2397.854004 141.000000
2399.373779 49.000000
2400.892822 -9.000000
2402.411377 -68.000000
2403.929443 6.000000
2405.447021 46.000000
2406.963867 144.000000
2408.480225 159.000000
2409.996094 174.000000
2411.511230 177.000000
2413.025879 181.000000
2414.540039 100.000000
2416.053711 -89.000000
2417.566650 -65.000000
2419.079102 -42.000000
2420.590820 -20.000000
2422.102051 -42.000000
2423.612793 -65.000000
2425.123047 -1.000000
2426.632568 45.000000
2428.141602 87.000000
2429.650146 130.000000
2431.157959 95.000000
2432.665527 42.000000
2434.172119 -10.000000
2435.678467 17.000000
2437.184082 48.000000
2438.689209 80.000000
2440.193848 103.000000
2441.697754 60.000000
2443.201172 17.000000
2444.704102 -26.000000
2446.206299 -163.000000
2447.708252 -221.000000
2449.209473 89.000000
2450.709961 -30.000000
2452.209961 117.000000
2453.709717 265.000000
2455.208496 168.000000
2456.707031 -79.000000
2458.204834 -53.000000
2459.702148 186.000000
2461.198730 -47.000000
2462.695068 -67.000000
2464.190674 -131.000000
2465.685791 -138.000000
2467.180176 -44.000000
2468.674072 49.000000
2470.167480 -28.000000
2471.660400 -199.000000
2473.152588 -200.000000
2474.644287 -79.000000
2476.135498 42.000000
2477.626221 -26.000000
2479.116211 -42.000000
2480.605713 40.000000
2482.094727 205.000000
2483.583008 102.000000
2485.070801 -289.000000
2486.558105 -176.000000
2488.044922 -132.000000
2489.531006 -36.000000
2491.016602 60.000000
2492.501709 -55.000000
2493.986328 66.000000
2495.470215 -224.000000
2496.953613 -28.000000
2498.436523 107.000000
2499.918701 123.000000
2501.400391 -1.000000
2502.881592 41.000000
2504.362305 57.000000
2505.842529 -131.000000
2507.322021 73.000000
2508.801025 -132.000000
2510.279297 45.000000
2511.757324 -132.000000
2513.234619 -116.000000
2514.711426 -101.000000
2516.187500 20.000000
2517.663330 32.000000
2519.138428 45.000000
2520.613037 56.000000
2522.086914 67.000000
2523.560547 -214.000000
2525.033447 0.000000
2526.505859 -77.000000
2527.977539 -56.000000
2529.448975 -36.000000
2530.919678 -22.000000
2532.389893 46.000000
2533.859375 17.000000
2535.328613 -11.000000
2536.797119 66.000000
2538.265137 75.000000
2539.732422 85.000000
2541.199463 33.000000
2542.665771 -245.000000
2544.131592 -193.000000
2545.596680 -141.000000
2547.061523 -143.000000
2548.525635 -146.000000
2549.989258 -110.000000
2551.452148 -54.000000
2552.914795 1.000000
2554.376709 -105.000000
2555.838135 -58.000000
2557.299072 24.000000
2558.759277 -10.000000
2560.219238 -45.000000
2561.678467 94.000000
2563.137207 -61.000000
2564.595215 68.000000
2566.052734 87.000000
2567.510010 -155.000000
2568.966309 -110.000000
2570.422363 70.000000
2571.877930 32.000000
2573.332764 274.000000
2574.787109 292.000000
2576.240723 -63.000000
2577.694092 11.000000
2579.146729 9.000000
2580.598877 192.000000
2582.050537 66.000000
2583.501709 383.000000
2584.952148 162.000000
2586.402100 145.000000
2587.851562 -44.000000
2589.300537 -3.000000
2590.749023 -85.000000
2592.196777 33.000000
2593.644043 -38.000000
2595.090820 3.000000
2596.536865 12.000000
2597.982666 21.000000
2599.427734 49.000000
2600.872314 -69.000000
2602.316406 -187.000000
2603.759766 -42.000000
2605.202881 -1.000000
2606.645264 40.000000
2608.087158 45.000000
2609.528320 -69.000000
2610.969238 -147.000000
2612.409424 11.000000
2613.849121 -84.000000
2615.288330 -6.000000
2616.727051 -39.000000
2618.165039 26.000000
2619.602783 -80.000000
2621.039795 6.000000
2622.476318 -97.000000
2623.912109 -71.000000
2625.347656 69.000000
2626.782471 -69.000000
2628.216797 -55.000000
2629.650635 -42.000000
2631.083740 -71.000000
2632.516602 142.000000
2633.948730 146.000000
2635.380371 -194.000000
2636.811523 66.000000
2638.242188 -114.000000
2639.672119 -108.000000
2641.101562 -38.000000
2642.530518 42.000000
2643.958984 123.000000
2645.386963 15.000000
2646.814209 50.000000
2648.241211 -77.000000
2649.667480 17.000000
2651.093262 -89.000000
2652.518555 -105.000000
2653.943115 -122.000000
2655.367188 -151.000000
2656.791016 -190.000000
2658.214111 -163.000000
2659.636475 -161.000000
2661.058594 -159.000000
2662.479980 -99.000000
2663.901123 89.000000
2665.321533 -97.000000
2666.741211 -78.000000
2668.160645 -60.000000
2669.579590 -7.000000
2670.997803 9.000000
2672.415527 201.000000
2673.832764 217.000000
2675.249512 117.000000
2676.665527 65.000000
2678.081299 13.000000
2679.496338 5.000000
2680.910889 55.000000
2682.324951 74.000000
2683.738525 -9.000000
2685.151367 50.000000
2686.563965 110.000000
2687.975830 88.000000
2689.387207 -59.000000
2690.798096 -59.000000
2692.208496 -59.000000
2693.618164 23.000000
2695.027344 106.000000
2696.436279 43.000000
2697.844482 -19.000000
2699.251953 -3.000000
2700.659180 123.000000
2702.065918 250.000000
2703.471924 242.000000
2704.877441 182.000000
2706.282471 123.000000
2707.687012 75.000000
2709.091064 99.000000
2710.494385 -129.000000
2711.897461 -41.000000
2713.299805 -17.000000
2714.701660 -103.000000
2716.103027 -31.000000
2717.503906 144.000000
2718.904053 160.000000
2720.303955 131.000000
2721.703125 102.000000
2723.101807 -10.000000
2724.500000 -8.000000
2725.897705 -6.000000
2727.294678 0.000000
2728.691406 -40.000000
2730.087402 -129.000000
2731.482910 -86.000000
2732.877930 -44.000000
2734.272461 -34.000000
2735.666504 289.000000
2737.060059 -22.000000
2738.452881 -85.000000
2739.845215 -149.000000
2741.237061 -141.000000
2742.628418 210.000000
2744.019287 129.000000
2745.409668 -168.000000
2746.799561 -202.000000
2748.188721 -184.000000
2749.577393 409.000000
2750.965576 -2.000000
2752.353271 162.000000
2753.740479 97.000000
2755.127197 32.000000
2756.513428 -12.000000
2757.898926 230.000000
2759.283936 153.000000
2760.668457 -143.000000
2762.052490 -10.000000
2763.436035 10.000000
2764.819092 -50.000000
2766.201660 -26.000000
2767.583496 -61.000000
2768.964844 -16.000000
2770.345947 28.000000
2771.726318 -21.000000
2773.106201 -71.000000
2774.485596 -20.000000
2775.864258 30.000000
2777.242676 65.000000
2778.620361 -146.000000
2779.997559 -2.000000
2781.374512 142.000000
2782.750732 43.000000
2784.126465 257.000000
2785.501465 88.000000
2786.876221 131.000000
2788.250488 -162.000000
2789.624023 -24.000000
2790.997070 -58.000000
2792.369629 -29.000000
2793.741699 0.000000
2795.113281 -6.000000
2796.484375 129.000000
2797.854980 -337.000000
2799.224854 -43.000000
2800.594482 82.000000
2801.963379 -280.000000
2803.331787 115.000000
2804.699951 -108.000000
2806.067383 -39.000000
2807.434082 -111.000000
2808.800537 -60.000000
2810.166504 149.000000
2811.531738 225.000000
2812.896729 174.000000
2814.260986 -103.000000
2815.624756 -59.000000
2816.988037 21.000000
2818.350830 40.000000
2819.713135 59.000000
2821.074951 146.000000
2822.436035 -76.000000
2823.796875 -148.000000
2825.156982 55.000000
2826.516846 -87.000000
2827.875977 -159.000000
2829.234619 -147.000000
2830.592773 -136.000000
2831.950439 -134.000000
2833.307617 -52.000000
2834.664062 30.000000
2836.020264 -27.000000
2837.375732 -48.000000
2838.730957 -70.000000
2840.085449 -116.000000
2841.439453 15.000000
2842.792969 -2.000000
2844.145996 -19.000000
2845.498535 -84.000000
2846.850586 9.000000
2848.202148 -77.000000
2849.552979 -36.000000
2850.903564 -32.000000
2852.253418 -96.000000
2853.603027 163.000000
2854.951904 21.000000
2856.300293 10.000000
2857.648193 -95.000000
2858.995605 -201.000000
2860.342529 -308.000000
2861.688721 -93.000000
2863.034668 -86.000000
2864.380127 -80.000000
2865.724854 -47.000000
2867.069336 -15.000000
2868.413086 -93.000000
2869.756348 -127.000000
2871.099121 -161.000000
2872.441406 -18.000000
2873.783203 -125.000000
2875.124512 -6.000000
2876.465332 141.000000
2877.805664 117.000000
2879.145508 93.000000
2880.484619 240.000000
2881.823486 190.000000
2883.161621 -55.000000
2884.499268 -21.000000
2885.836670 -83.000000
2887.173340 -16.000000
2888.509521 170.000000
2889.845215 76.000000
2891.180420 71.000000
2892.515137 67.000000
2893.849365 78.000000
2895.182861 54.000000
2896.516113 -86.000000
2897.848633 436.000000
2899.180908 -71.000000
2900.512451 85.000000
2901.843750 109.000000
2903.174316 -86.000000
2904.504395 -52.000000
2905.833984 -135.000000
2907.163086 -156.000000
2908.491699 -177.000000
2909.819824 -59.000000
2911.147461 171.000000
2912.474609 423.000000
2913.801270 -199.000000
2915.127441 -256.000000
2916.452881 229.000000
2917.778076 8.000000
2919.102539 -21.000000
2920.426758 -50.000000
2921.750244 94.000000
2923.073242 53.000000
2924.395996 13.000000
2925.718018 262.000000
2927.039551 -83.000000
2928.360596 -104.000000
2929.681152 36.000000
2931.001221 -92.000000
2932.320801 56.000000
2933.639893 205.000000
2934.958252 126.000000
2936.276367 118.000000
2937.593994 359.000000
2938.910889 305.000000
2940.227539 230.000000
2941.543457 -228.000000
2942.859131 -188.000000
2944.174072 -137.000000
2945.488770 -86.000000
2946.802734 -35.000000
2948.116211 15.000000
2949.429199 37.000000
2950.741943 49.000000
2952.053955 93.000000
2953.365479 29.000000
2954.676514 -13.000000
2955.987061 -166.000000
2957.297119 -211.000000
2958.606689 -153.000000
2959.915527 9.000000
2961.224121 -135.000000
2962.532227 277.000000
2963.839844 -221.000000
2965.146729 434.000000
2966.453369 389.000000
2967.759521 -106.000000
2969.064941 203.000000
2970.370117 -41.000000
2971.674561 -61.000000
2972.978760 34.000000
2974.282227 130.000000
2975.585205 228.000000
2976.887939 70.000000
2978.189941 75.000000
2979.491455 80.000000
2980.792480 247.000000
2982.093018 -303.000000
2983.393311 -283.000000
2984.692871 46.000000
2985.991943 -96.000000
2987.290527 -68.000000
2988.588623 -41.000000
2989.886230 115.000000
2991.183350 277.000000
2992.479980 62.000000
2993.776123 90.000000
2995.071777 118.000000
2996.366699 134.000000
2997.661377 -380.000000
2998.955566 -153.000000
3000.249268 179.000000
3001.542236 158.000000
3002.834961 -128.000000
3004.127197 -111.000000
3005.418945 -48.000000
3006.709961 242.000000
3008.000732 268.000000
3009.290771 221.000000
3010.580566 175.000000
3011.869873 110.000000
3013.158447 130.000000
3014.446777 150.000000
3015.734375 32.000000
3017.021729 12.000000
3018.308350 -7.000000
3019.594727 54.000000
3020.880371 173.000000
3022.165527 46.000000
3023.450439 289.000000
3024.734619 230.000000
3026.018555 -43.000000
3027.301758 58.000000
3028.584473 -40.000000
3029.866943 -4.000000
3031.148682 -110.000000
3032.429932 -103.000000
3033.710938 -99.000000
3034.991211 174.000000
3036.270996 -146.000000
3037.550293 -128.000000
3038.829346 87.000000
3040.107666 -61.000000
3041.385498 -2.000000
3042.662842 108.000000
3043.939941 219.000000
3045.216309 191.000000
3046.492188 262.000000
3047.767578 -92.000000
3049.042725 236.000000
3050.317139 23.000000
3051.591064 45.000000
3052.864502 -21.000000
3054.137451 -28.000000
3055.410156 237.000000
3056.682129 193.000000
3057.953613 -130.000000
3059.224609 45.000000
3060.495361 -59.000000
3061.765381 -118.000000
3063.034912 11.000000
3064.303955 -38.000000
3065.572754 -87.000000
3066.840820 -136.000000
3068.108398 -71.000000
3069.375488 29.000000
3070.642334 129.000000
3071.908447 -43.000000
3073.174072 -39.000000
3074.439209 167.000000
3075.704102 136.000000
3076.968262 26.000000
3078.231934 -267.000000
3079.495361 -84.000000
3080.758057 163.000000
3082.020264 267.000000
3083.282227 256.000000
3084.543457 246.000000
3085.804199 256.000000
3087.064697 96.000000
3088.324463 -63.000000
3089.583984 47.000000
3090.842773 158.000000
3092.101074 92.000000
3093.359131 26.000000
3094.616455 39.000000
3095.873535 -12.000000
3097.129883 139.000000
3098.385986 181.000000
3099.641602 223.000000
3100.896484 154.000000
3102.151123 134.000000
3103.405029 115.000000
3104.658691 140.000000
3105.911865 -4.000000
3107.164307 168.000000
3108.416504 172.000000
3109.668213 116.000000
3110.919434 92.000000
3112.169922 69.000000
3113.420166 17.000000
3114.669922 211.000000
3115.919189 -169.000000
3117.167969 272.000000
3118.416260 139.000000
3119.664062 52.000000
3120.911377 -99.000000
3122.158203 -170.000000
3123.404541 -242.000000
3124.650391 -245.000000
3125.895752 140.000000
3127.140625 108.000000
3128.385010 77.000000
3129.629150 138.000000
3130.872559 200.000000
3132.115479 293.000000
3133.357910 256.000000
3134.600098 220.000000
3135.841553 208.000000
3137.082764 168.000000
3138.323242 135.000000
3139.563477 15.000000
3140.802979 268.000000
3142.042236 -62.000000
3143.280762 -20.000000
3144.519043 -90.000000
3145.756836 -161.000000
3146.993896 -108.000000
3148.230713 -30.000000
3149.467041 48.000000
3150.702881 9.000000
3151.938232 -30.000000
3153.173096 104.000000
3154.407471 54.000000
3155.641357 5.000000
3156.874756 5.000000
3158.107666 5.000000
3159.340088 -36.000000
3160.572021 -78.000000
3161.803467 25.000000
3163.034668 -52.000000
3164.265137 76.000000
3165.495361 224.000000
3166.724854 143.000000
3167.954102 63.000000
3169.182617 -18.000000
3170.410889 -99.000000
3171.638428 -99.000000
3172.865723 76.000000
3174.092529 138.000000
3175.318848 246.000000
3176.544678 -2.000000
3177.770020 2.000000
3178.994873 7.000000
3180.219238 125.000000
3181.443115 -187.000000
3182.666504 -74.000000
3183.889404 -90.000000
3185.111816 -180.000000
3186.333984 -212.000000
3187.555420 -202.000000
3188.776611 -178.000000
3189.997070 171.000000
3191.217285 12.000000
3192.436768 54.000000
3193.656006 -101.000000
3194.874756 -68.000000
3196.093018 -36.000000
3197.310547 -33.000000
3198.527832 -31.000000
3199.744629 -54.000000
3200.960938 -369.000000
3202.177002 -125.000000
3203.392334 118.000000
3204.607178 202.000000
3205.821533 165.000000
3207.035645 129.000000
3208.249023 -123.000000
3209.462158 -51.000000
3210.674561 21.000000
3211.886719 -92.000000
3213.098389 68.000000
3214.309570 64.000000
3215.520264 -92.000000
3216.730469 21.000000
3217.940186 37.000000
3219.149414 -189.000000
3220.358154 -2.000000
3221.566406 -91.000000
3222.774414 -181.000000
3223.981689 -144.000000
3225.188721 120.000000
3226.395020 450.000000
3227.601074 390.000000
3228.806396 -118.000000
3230.011475 166.000000
3231.216064 2.000000
3232.420166 -116.000000
3233.623779 75.000000
3234.826904 -112.000000
3236.029541 317.000000
3237.231934 -151.000000
3238.433594 -2.000000
3239.635010 -168.000000
3240.835693 -179.000000
3242.036133 -160.000000
3243.235840 31.000000
3244.435303 223.000000
3245.634277 125.000000
3246.832764 -177.000000
3248.030762 -32.000000
3249.228271 -113.000000
3250.425293 -194.000000
3251.622070 -186.000000
3252.818115 255.000000
3254.013672 12.000000
3255.208984 295.000000
3256.403809 79.000000
3257.597900 209.000000
3258.791748 245.000000
3259.985107 -132.000000
3261.177979 -74.000000
3262.370361 -257.000000
3263.562256 -127.000000
3264.753906 -119.000000
3265.944824 19.000000
3267.135498 -265.000000
3268.325439 -150.000000
3269.515137 -90.000000
3270.704346 -30.000000
3271.893066 30.000000
3273.081055 -44.000000
3274.269043 -65.000000
3275.456299 -86.000000
3276.643066 -106.000000
3277.829346 -328.000000
3279.015381 -88.000000
3280.200684 -423.000000
3281.385742 -296.000000
3282.570312 -310.000000
3283.754395 -44.000000
3284.937988 -149.000000
3286.121094 -87.000000
3287.303711 -190.000000
3288.485840 -31.000000
3289.667480 -141.000000
3290.848877 16.000000
3292.029541 -50.000000
3293.209961 134.000000
3294.389893 110.000000
3295.569336 86.000000
3296.748291 -8.000000
3297.926758 -103.000000
3299.104736 0.000000
3300.282227 72.000000
3301.459473 -122.000000
3302.635986 13.000000
3303.812256 -22.000000
3304.988037 282.000000
3306.163330 -19.000000
3307.338135 248.000000
3308.512451 242.000000
3309.686279 -16.000000
3310.859619 64.000000
3312.032715 -94.000000
3313.205078 -176.000000
3314.377197 -68.000000
3315.548828 39.000000
3316.719971 30.000000
3317.890625 100.000000
3319.060791 -50.000000
3320.230469 171.000000
3321.399902 58.000000
3322.568604 30.000000
3323.737061 -120.000000
3324.904785 5.000000
3326.072266 198.000000
3327.239258 44.000000
3328.405762 -165.000000
3329.572021 -227.000000
3330.737549 -290.000000
3331.902588 -313.000000
3333.067383 -19.000000
3334.231689 187.000000
3335.395508 18.000000
3336.558838 -151.000000
3337.721680 -165.000000
3338.884033 -195.000000
3340.045898 153.000000
3341.207520 159.000000
3342.368408 104.000000
3343.529053 50.000000
3344.689209 -86.000000
3345.848877 -249.000000
3347.008057 -233.000000
3348.166748 -218.000000
3349.324951 -159.000000
3350.482910 -101.000000
3351.640381 -109.000000
3352.797119 33.000000
3353.953613 127.000000
3355.109619 222.000000
3356.265137 110.000000
3357.420410 -2.000000
3358.574951 -11.000000
3359.729248 211.000000
3360.882812 186.000000
3362.036133 -24.000000
3363.188965 -234.000000
3364.341309 -46.000000
3365.493164 -172.000000
3366.644775 82.000000
3367.795654 272.000000
3368.946289 108.000000
3370.096436 -88.000000
3371.246094 -93.000000
3372.395264 -99.000000
3373.543945 -219.000000
3374.692139 -287.000000
3375.840088 24.000000
3376.987305 -114.000000
3378.134277 63.000000
3379.280762 74.000000
3380.426758 -454.000000
3381.572266 -513.000000
3382.717529 -124.000000
3383.862061 -280.000000
3385.006348 115.000000
3386.150146 -177.000000
3387.293457 -81.000000
3388.436279 14.000000
3389.578613 81.000000
3390.720459 150.000000
3391.862061 219.000000
3393.003174 131.000000
3394.143555 283.000000
3395.283691 435.000000
3396.423340 170.000000
3397.562744 35.000000
3398.701416 -100.000000
3399.839844 133.000000
3400.977783 -71.000000
3402.114990 -78.000000
3403.251953 -86.000000
3404.388672 -119.000000
3405.524658 -248.000000
3406.660156 -146.000000
3407.795410 44.000000
3408.930176 4.000000
3410.064453 -36.000000
3411.198242 -123.000000
3412.331543 -60.000000
3413.464600 63.000000
3414.596924 78.000000
3415.729004 145.000000
3416.860596 159.000000
3417.991699 173.000000
3419.122314 161.000000
3420.252686 164.000000
3421.382324 134.000000
3422.511719 108.000000
3423.640625 82.000000
3424.769043 101.000000
3425.896973 358.000000
3427.024658 119.000000
3428.151611 -83.000000
3429.278320 -286.000000
3430.404541 70.000000
3431.530273 301.000000
3432.655518 164.000000
3433.780273 27.000000
3434.904785 -40.000000
3436.028564 -3.000000
3437.152100 -43.000000
3438.275146 -188.000000
3439.397949 -174.000000
3440.520020 -161.000000
3441.641602 -285.000000
3442.762939 -211.000000
3443.883789 -99.000000
3445.004150 -239.000000
3446.124023 -306.000000
3447.243652 -373.000000
3448.362549 -349.000000
3449.481201 -111.000000
3450.599365 127.000000
3451.717041 159.000000
3452.834229 162.000000
3453.951172 -182.000000
3455.067383 -65.000000
3456.183350 -37.000000
3457.298828 384.000000
3458.413818 225.000000
3459.528564 103.000000
3460.642578 -334.000000
3461.756348 -272.000000
3462.869629 -291.000000
3463.982422 -282.000000
3465.094727 -147.000000
3466.206543 21.000000
3467.318115 112.000000
3468.429199 -277.000000
3469.539795 141.000000
3470.649902 78.000000
3471.759521 295.000000
3472.868652 -18.000000
3473.977539 -267.000000
3475.085938 -300.000000
3476.193848 -16.000000
3477.301270 -237.000000
3478.408447 -141.000000
3479.514893 -97.000000
3480.621094 -290.000000
3481.726807 -400.000000
3482.832031 25.000000
3483.937012 -198.000000
3485.041260 -166.000000
3486.145264 -135.000000
3487.248779 25.000000
3488.351807 -452.000000
3489.454346 -337.000000
3490.556641 -222.000000
3491.658203 -112.000000
3492.759521 -3.000000
3493.860352 12.000000
3494.960693 117.000000
3496.060791 -14.000000
3497.160156 -146.000000
3498.259277 -105.000000
3499.357910 114.000000
3500.456299 85.000000
3501.553955 57.000000
3502.651367 191.000000
3503.748047 -214.000000
3504.844482 -249.000000
3505.940674 135.000000
3507.036133 -48.000000
3508.131348 -27.000000
3509.225830 -6.000000
3510.320068 -176.000000
3511.413818 -346.000000
3512.507324 -378.000000
3513.600098 359.000000
3514.692627 118.000000
3515.784668 182.000000
3516.876221 247.000000
3517.967529 133.000000
3519.058105 261.000000
3520.148438 116.000000
3521.238281 284.000000
3522.327637 188.000000
3523.416748 93.000000
3524.505127 32.000000
3525.593262 240.000000
3526.680908 45.000000
3527.768311 -253.000000
3528.854980 -367.000000
3529.941406 -442.000000
3531.027100 159.000000
3532.112793 -159.000000
3533.197754 -205.000000
3534.282227 -177.000000
3535.366455 71.000000
3536.450195 52.000000
3537.533447 75.000000
3538.616211 122.000000
3539.698730 170.000000
3540.780762 209.000000
3541.862305 180.000000
3542.943359 162.000000
3544.023926 144.000000
3545.104248 -19.000000
3546.183838 -40.000000
3547.263184 -218.000000
3548.342285 -141.000000
3549.420654 -151.000000
3550.498779 -276.000000
3551.576416 -92.000000
3552.653564 -188.000000
3553.730225 -42.000000
3554.806641 -56.000000
3555.882324 -188.000000
3556.957764 -234.000000
3558.032959 -59.000000
3559.107422 417.000000
3560.181641 401.000000
3561.255127 146.000000
3562.328369 -50.000000
3563.401367 -246.000000
3564.473633 -309.000000
3565.545654 -159.000000
3566.617188 133.000000
3567.688232 217.000000
3568.759033 -16.000000
3569.829102 -252.000000
3570.898926 473.000000
3571.968262 -259.000000
3573.037109 -30.000000
3574.105713 -201.000000
3575.173828 6.000000
3576.241455 98.000000
3577.308594 -161.000000
3578.375244 147.000000
3579.441650 104.000000
3580.507568 20.000000
3581.572998 -263.000000
3582.637939 -373.000000
3583.702637 64.000000
3584.766846 -98.000000
3585.830566 -166.000000
3586.893799 240.000000
3587.956543 614.000000
3589.019043 -91.000000
3590.081055 466.000000
3591.142578 469.000000
3592.203857 473.000000
3593.264404 150.000000
3594.324707 -13.000000
3595.384521 -177.000000
3596.444092 -41.000000
3597.502930 37.000000
3598.561523 687.000000
3599.619629 446.000000
3600.677490 199.000000
3601.734619 -61.000000
3602.791504 372.000000
3603.847900 243.000000
3604.903809 114.000000
3605.959473 -10.000000
3607.014404 27.000000
3608.069092 65.000000
3609.123535 194.000000
3610.177246 83.000000
3611.230713 -302.000000
3612.283691 -64.000000
3613.336182 -101.000000
3614.388184 -13.000000
3615.439941 -18.000000
3616.491211 -24.000000
3617.541992 -73.000000
3618.592285 -235.000000
3619.642334 -463.000000
3620.691895 -372.000000
3621.740967 -42.000000
3622.789551 200.000000
3623.837891 340.000000
3624.885742 56.000000
3625.933105 201.000000
3626.979980 148.000000
3628.026611 280.000000
3629.072754 266.000000
3630.118408 252.000000
3631.163574 466.000000
3632.208496 249.000000
3633.252930 32.000000
3634.296875 10.000000
3635.340332 68.000000
3636.383545 222.000000
3637.426025 -416.000000
3638.468506 -14.000000
3639.510254 -104.000000
3640.551758 -194.000000
3641.592529 -432.000000
3642.633301 -162.000000
3643.673340 -333.000000
3644.713135 -111.000000
3645.752197 38.000000
3646.791260 -119.000000
3647.829590 43.000000
3648.867676 -32.000000
3649.905029 -94.000000
3650.942383 -192.000000
3651.979004 436.000000
3653.015381 267.000000
3654.051270 98.000000
3655.086670 -91.000000
3656.121582 47.000000
3657.156250 -448.000000
3658.190430 173.000000
3659.224121 160.000000
3660.257568 -62.000000
3661.290283 -58.000000
3662.322754 -54.000000
3663.354980 17.000000
3664.386475 88.000000
3665.417725 231.000000
3666.448486 216.000000
3667.478760 58.000000
3668.508789 78.000000
3669.538330 99.000000
3670.567383 242.000000
3671.595947 260.000000
3672.624268 279.000000
3673.652100 -39.000000
3674.679443 -357.000000
3675.706543 -280.000000
3676.732910 -226.000000
3677.759033 -173.000000
3678.784912 262.000000
3679.810059 -236.000000
3680.834961 314.000000
3681.859375 416.000000
3682.883301 63.000000
3683.906982 370.000000
3684.930176 40.000000
3685.952881 159.000000
3686.975098 48.000000
3687.997070 374.000000
3689.018555 74.000000
3690.039551 -55.000000
3691.060303 -260.000000
3692.080566 -249.000000
3693.100342 -169.000000
3694.119629 -89.000000
3695.138672 89.000000
3696.157227 365.000000
3697.175293 397.000000
3698.192871 -57.000000
3699.210205 142.000000
3700.227051 -168.000000
3701.243408 -183.000000
3702.259521 -78.000000
3703.275146 26.000000
3704.290283 -123.000000
3705.304932 -86.000000
3706.319336 -133.000000
3707.333252 -180.000000
3708.346680 -188.000000
3709.359619 -58.000000
3710.372314 71.000000
3711.384521 -33.000000
3712.396484 33.000000
3713.407715 -102.000000
3714.418701 83.000000
3715.429199 291.000000
3716.439453 337.000000
3717.449219 -102.000000
3718.458496 299.000000
3719.467285 280.000000
3720.475830 -49.000000
3721.483887 -7.000000
3722.491455 -41.000000
3723.498535 38.000000
3724.505371 -132.000000
3725.511719 -302.000000
3726.517578 -294.000000
3727.523193 49.000000
3728.528320 72.000000
3729.532959 84.000000
3730.537354 96.000000
3731.541016 181.000000
3732.544678 -50.000000
3733.547607 -162.000000
3734.550293 -274.000000
3735.552490 -290.000000
3736.554199 391.000000
3737.555420 517.000000
3738.556396 644.000000
3739.556885 621.000000
3740.557129 446.000000
3741.556641 23.000000
3742.555908 155.000000
3743.554932 15.000000
3744.553223 185.000000
3745.551270 -166.000000
3746.548828 226.000000
3747.546143 -78.000000
3748.542969 -58.000000
3749.539307 204.000000
3750.535156 -496.000000
3751.530762 -55.000000
3752.525879 -681.000000
3753.520508 -157.000000
3754.514648 -169.000000
3755.508545 639.000000
3756.502197 -177.000000
3757.495117 375.000000
3758.487793 249.000000
3759.479980 146.000000
3760.471680 178.000000
3761.463135 210.000000
3762.454102 -40.000000
3763.444580 -290.000000
3764.434814 -11.000000
3765.424561 -195.000000
3766.413818 175.000000
3767.402588 67.000000
3768.391113 -111.000000
3769.379150 -23.000000
3770.366699 64.000000
3771.354004 68.000000
3772.340820 48.000000
3773.327393 -90.000000
3774.313232 -228.000000
3775.298828 -240.000000
3776.283936 -307.000000
3777.268799 -374.000000
3778.253174 -132.000000
3779.237061 -92.000000
3780.220459 -52.000000
3781.203613 181.000000
3782.186279 231.000000
3783.168701 44.000000
3784.150391 214.000000
3785.131836 384.000000
3786.113037 -48.000000
3787.093506 -534.000000
3788.073730 -575.000000
3789.053711 409.000000
3790.032959 350.000000
3791.011963 291.000000
3791.990479 301.000000
3792.968750 -18.000000
3793.946533 60.000000
3794.923828 243.000000
3795.900635 507.000000
3796.877197 182.000000
3797.853271 -105.000000
3798.829102 56.000000
3799.804199 -179.000000
3800.779053 -344.000000
3801.753662 381.000000
3802.727783 -93.000000
3803.701416 -50.000000
3804.674561 -8.000000
3805.647461 128.000000
3806.619873 265.000000
3807.591797 269.000000
3808.563232 -257.000000
3809.534424 -278.000000
3810.505371 -200.000000
3811.475586 -194.000000
3812.445557 -188.000000
3813.415039 -213.000000
3814.384277 -374.000000
3815.353027 -86.000000
3816.321289 -41.000000
3817.289062 4.000000
3818.256592 -4.000000
3819.223633 289.000000
3820.190430 334.000000
3821.156738 546.000000
3822.122559 -331.000000
3823.087891 -374.000000
3824.052979 134.000000
3825.017578 -238.000000
3825.981934 -58.000000
3826.945557 -33.000000
3827.909180 39.000000
3828.872070 334.000000
3829.834717 170.000000
3830.796875 214.000000
3831.758545 258.000000
3832.719971 250.000000
3833.680908 514.000000
3834.641357 96.000000
3835.601562 -29.000000
3836.561279 -155.000000
3837.520752 0.000000
3838.479492 -374.000000
3839.437988 -342.000000
3840.396240 -311.000000
3841.354004 -354.000000
3842.311279 -105.000000
3843.268066 140.000000
3844.224609 -131.000000
3845.180664 76.000000
3846.136230 -63.000000
3847.091553 -199.000000
3848.046387 46.000000
3849.000977 99.000000
3849.954834 153.000000
3850.908447 119.000000
3851.861816 65.000000
3852.814697 12.000000
3853.767090 64.000000
3854.718994 -403.000000
3855.670654 -150.000000
3856.621826 24.000000
3857.572510 -399.000000
3858.522949 135.000000
3859.472900 73.000000
3860.422607 211.000000
3861.371826 159.000000
3862.320557 108.000000
3863.268799 -8.000000
3864.216797 -82.000000
3865.164307 -339.000000
3866.111572 -757.000000
3867.058350 -762.000000
3868.004639 -767.000000
3868.950684 -335.000000
3869.895996 -250.000000
3870.841309 320.000000
3871.785889 -76.000000
3872.730225 13.000000
3873.674316 109.000000
3874.617676 223.000000
3875.560791 338.000000
3876.503418 199.000000
3877.445801 61.000000
3878.387695 118.000000
3879.329346 -176.000000
3880.270264 -145.000000
3881.210938 -114.000000
3882.151367 -74.000000
3883.091309 -35.000000
3884.030762 -208.000000
3884.969727 -60.000000
3885.908447 88.000000
3886.846680 199.000000
3887.784668 257.000000
3888.721924 -39.000000
3889.659180 -208.000000
3890.595703 -231.000000
3891.531982 17.000000
3892.468018 547.000000
3893.403320 481.000000
3894.338379 40.000000
3895.272949 -98.000000
3896.207275 -64.000000
3897.141113 -31.000000
3898.074707 -286.000000
3899.007568 -550.000000
3899.940430 78.000000
3900.872559 -165.000000
3901.804443 119.000000
3902.735840 403.000000
3903.666992 614.000000
3904.597656 264.000000
3905.527832 -386.000000
3906.457520 -566.000000
3907.386963 -382.000000
3908.316162 -198.000000
3909.244629 -162.000000
3910.173096 -328.000000
3911.100830 -166.000000
3912.028320 157.000000
3912.955322 252.000000
3913.881836 -144.000000
3914.808105 -678.000000
3915.733887 -81.000000
3916.659424 -203.000000
3917.584473 -326.000000
3918.509033 -495.000000
3919.433350 95.000000
3920.357178 113.000000
3921.280762 132.000000
3922.203613 82.000000
3923.126221 379.000000
3924.048584 100.000000
3924.970459 -187.000000
3925.891846 -299.000000
3926.812988 159.000000
3927.733643 -293.000000
3928.653809 -174.000000
3929.573730 -142.000000
3930.493164 -80.000000
3931.412109 -276.000000
3932.330811 -189.000000
3933.249023 -106.000000
3934.166992 -236.000000
3935.084473 -213.000000
3936.001465 -190.000000
3936.918213 81.000000
3937.834473 353.000000
3938.750244 353.000000
3939.665771 498.000000
3940.580811 419.000000
3941.495605 340.000000
3942.409668 91.000000
3943.323730 -158.000000
3944.237061 -140.000000
3945.150146 -158.000000
3946.062988 -406.000000
3946.975098 -474.000000
3947.887207 -543.000000
3948.798584 -407.000000
3949.709717 -416.000000
3950.620361 349.000000
3951.530762 9.000000
3952.440674 -4.000000
3953.350098 -112.000000
3954.259277 -220.000000
3955.167969 -244.000000
3956.076416 456.000000
3956.984375 493.000000
3957.891846 192.000000
3958.799072 -108.000000
3959.705811 221.000000
3960.612061 -70.000000
3961.518066 97.000000
3962.423584 264.000000
3963.328857 82.000000
3964.233398 -99.000000
3965.137939 -179.000000
3966.041992 -94.000000
3966.945557 -68.000000
3967.848633 -42.000000
3968.751465 -47.000000
3969.653809 28.000000
3970.555908 104.000000
3971.457520 161.000000
3972.358643 -569.000000
3973.259521 -47.000000
3974.159912 33.000000
3975.060059 114.000000
3975.959473 57.000000
3976.858887 57.000000
3977.757568 -537.000000
3978.656250 -214.000000
3979.554199 -116.000000
3980.451904 711.000000
3981.349121 119.000000
3982.246094 257.000000
3983.142578 212.000000
3984.038574 167.000000
3984.934326 229.000000
3985.829590 -516.000000
3986.724609 -334.000000
3987.619141 205.000000
3988.513184 268.000000
3989.406982 -33.000000
3990.300293 -335.000000
3991.193115 -268.000000
3992.085693 235.000000
3992.978027 81.000000
3993.869629 -72.000000
3994.760986 72.000000
3995.652100 409.000000
3996.542725 106.000000
3997.432861 -197.000000
3998.322754 400.000000
3999.212158 548.000000
4000.101074 696.000000
4000.989746 14.000000
4001.877930 111.000000
4002.765869 208.000000
4003.653320 404.000000
4004.540283 -85.000000
4005.427002 174.000000
4006.313232 391.000000
4007.199219 608.000000
4008.084717 401.000000
4008.969727 691.000000
4009.854492 414.000000
4010.738770 243.000000
4011.622803 -532.000000
4012.506348 -425.000000
4013.389404 -357.000000
4014.272217 -289.000000
4015.154541 -323.000000
4016.036621 -358.000000
4016.918213 -461.000000
4017.799316 -282.000000
4018.680176 -103.000000
4019.560547 27.000000
4020.440674 -34.000000
4021.320312 123.000000
4022.199463 251.000000
4023.078369 360.000000
4023.957031 400.000000
4024.834961 440.000000
4025.712646 29.000000
4026.590088 54.000000
4027.466797 79.000000
4028.343506 317.000000
4029.219482 539.000000
4030.095215 -146.000000
4030.970703 129.000000
4031.845703 109.000000
4032.720215 -129.000000
4033.594482 -349.000000
4034.468262 -261.000000
4035.341553 -174.000000
4036.214600 330.000000
4037.087158 170.000000
4037.959473 10.000000
4038.831299 263.000000
4039.702881 516.000000
4040.573975 411.000000
4041.444580 -95.000000
4042.314941 -281.000000
4043.184814 153.000000
4044.054443 -85.000000
4044.923584 -417.000000
4045.792236 -50.000000
4046.660645 -334.000000
4047.528564 472.000000
4048.396240 226.000000
4049.263428 -33.000000
4050.130127 -292.000000
4050.996582 -100.000000
4051.862793 -42.000000
4052.728271 15.000000
4053.593506 -383.000000
4054.458496 -365.000000
