358.924133 143749.000000
361.194489 143945.000000
363.464020 144914.000000
365.732697 144693.000000
368.000519 145367.000000
370.267487 145516.000000
372.533630 145495.000000
374.798920 146724.000000
377.063354 147724.000000
379.326935 147378.000000
381.589691 148410.000000
383.851562 147404.000000
386.112610 148862.000000
388.372833 149045.000000
390.632202 149148.000000
392.890717 150289.000000
395.148376 150516.000000
397.405212 150502.000000
399.661194 151180.000000
401.916321 151758.000000
404.170624 152267.000000
406.424072 152186.000000
408.676697 152345.000000
410.928467 152245.000000
413.179382 152724.000000
415.429474 153446.000000
417.678741 153621.000000
419.927124 153329.000000
422.174713 153921.000000
424.421417 154321.000000
426.667328 154483.000000
428.912384 153686.000000
431.156586 155221.000000
433.399963 154393.000000
435.642487 154001.000000
437.884186 154544.000000
440.125031 154411.000000
442.365082 154043.000000
444.604248 154826.000000
446.842621 155099.000000
449.080109 154197.000000
451.316803 155119.000000
453.552643 155389.000000
455.787659 155718.000000
458.021820 156212.000000
460.255157 155369.000000
462.487671 156483.000000
464.719360 156485.000000
466.950195 156166.000000
469.180206 156886.000000
471.409363 156902.000000
473.637726 157936.000000
475.865234 158686.000000
478.091919 158659.000000
480.317749 159508.000000
482.542786 159999.000000
484.766968 159900.000000
486.990326 159371.000000
489.212860 159719.000000
491.434570 160775.000000
493.655426 160860.000000
495.875488 161376.000000
498.094696 161959.000000
500.313080 161928.000000
502.530640 163080.000000
504.747375 163163.000000
506.963287 162440.000000
509.178375 162284.000000
511.392609 164639.000000
513.606018 164608.000000
515.818665 165005.000000
518.030396 165211.000000
520.241394 164668.000000
522.451477 165058.000000
524.660828 164684.000000
526.869263 163273.000000
529.076965 164539.000000
531.283752 164281.000000
533.489807 164359.000000
535.695007 164873.000000
537.899353 165657.000000
540.102905 164821.000000
542.305603 164831.000000
544.507507 164322.000000
546.708618 164766.000000
548.908875 165668.000000
551.108337 165327.000000
553.306946 164638.000000
555.504761 165729.000000
557.701721 166464.000000
559.897888 165872.000000
562.093262 165207.000000
564.287781 166797.000000
566.481506 166341.000000
568.674377 166404.000000
570.866455 165907.000000
573.057739 167032.000000
575.248169 166986.000000
577.437805 166684.000000
579.626587 166861.000000
581.814636 168004.000000
584.001770 168386.000000
586.188171 168001.000000
588.373718 166675.000000
590.558472 168422.000000
592.742371 167565.000000
594.925476 168054.000000
597.107788 166772.000000
599.289307 168178.000000
601.469971 168611.000000
603.649841 168397.000000
605.828918 168131.000000
608.007141 169380.000000
610.184570 168743.000000
612.361206 167195.000000
614.536987 168257.000000
616.712036 169309.000000
618.886230 170010.000000
621.059570 169756.000000
623.232178 169219.000000
625.403931 170717.000000
627.574890 171129.000000
629.745056 171119.000000
631.914368 170272.000000
634.082886 172729.000000
636.250610 172334.000000
638.417542 171337.000000
640.583679 172859.000000
642.748962 172740.000000
644.913513 173637.000000
647.077209 173543.000000
649.240112 172223.000000
651.402161 175208.000000
653.563477 174679.000000
655.723938 175324.000000
657.883606 175484.000000
660.042480 176364.000000
662.200562 177306.000000
664.357849 175781.000000
666.514343 176485.000000
668.669983 177631.000000
670.824829 177679.000000
672.978882 177173.000000
675.132141 176969.000000
677.284607 178572.000000
679.436279 178361.000000
681.587158 177160.000000
683.737244 176175.000000
685.886475 176592.000000
688.034973 177215.000000
690.182617 176845.000000
692.329468 176935.000000
694.475525 177712.000000
696.620850 178019.000000
698.765320 178264.000000
700.908997 177721.000000
703.051880 178864.000000
705.193970 178201.000000
707.335205 178357.000000
709.475708 178852.000000
711.615417 179061.000000
713.754333 179059.000000
715.892456 178745.000000
718.029724 179314.000000
720.166260 179849.000000
722.302002 180212.000000
724.436951 180542.000000
726.571045 179854.000000
728.704407 181380.000000
730.836975 181627.000000
732.968750 180832.000000
735.099670 180633.000000
737.229858 182562.000000
739.359253 182452.000000
741.487854 181816.000000
743.615662 181936.000000
745.742676 182040.000000
747.868896 183329.000000
749.994324 181765.000000
752.119019 184045.000000
754.242859 183689.000000
756.365906 184587.000000
758.488220 183857.000000
760.609680 180099.000000
762.730408 186255.000000
764.850342 185267.000000
766.969482 184709.000000
769.087830 184302.000000
771.205383 186840.000000
773.322144 186419.000000
775.438110 186562.000000
777.553345 185051.000000
779.667725 186131.000000
781.781372 186217.000000
783.894226 183654.000000
786.006287 184961.000000
788.117554 185645.000000
790.228088 185820.000000
792.337769 185814.000000
794.446716 184344.000000
796.554871 185804.000000
798.662231 185398.000000
800.768799 184710.000000
802.874634 184488.000000
804.979675 185802.000000
807.083862 185311.000000
809.187378 184743.000000
811.290039 184665.000000
813.391907 176320.000000
815.493042 185737.000000
817.593384 184539.000000
819.692932 185366.000000
821.791748 185993.000000
823.889771 185859.000000
825.987000 185762.000000
828.083435 184277.000000
830.179077 184707.000000
832.273987 186500.000000
834.368103 185776.000000
836.461426 184666.000000
838.554016 187924.000000
840.645813 187989.000000
842.736816 185675.000000
844.827026 186821.000000
846.916504 188838.000000
849.005188 188320.000000
851.093140 188060.000000
853.180237 188170.000000
855.266602 189455.000000
857.352234 189040.000000
859.437073 187837.000000
861.521118 188372.000000
863.604370 189844.000000
865.686890 188452.000000
867.768616 189404.000000
869.849548 188718.000000
871.929749 190776.000000
874.009155 188940.000000
876.087830 188623.000000
878.165710 188174.000000
880.242798 188902.000000
882.319153 191059.000000
884.394714 189180.000000
886.469482 188385.000000
888.543518 190897.000000
890.616821 190320.000000
892.689270 189376.000000
894.761047 189576.000000
896.831970 190481.000000
898.902161 190756.000000
900.971619 190655.000000
903.040222 189729.000000
905.108154 191021.000000
907.175293 192179.000000
909.241638 190825.000000
911.307251 190235.000000
913.372070 193791.000000
915.436096 192174.000000
917.499390 193161.000000
919.561951 191569.000000
921.623718 194267.000000
923.684753 194682.000000
925.744995 193903.000000
927.804443 193387.000000
929.863159 195617.000000
931.921143 195696.000000
933.978333 194689.000000
936.034790 194735.000000
938.090454 196131.000000
940.145325 196478.000000
942.199524 194853.000000
944.252869 196391.000000
946.305542 197665.000000
948.357422 197123.000000
950.408508 196221.000000
952.458862 194765.000000
954.508423 197459.000000
956.557312 197232.000000
958.605347 194149.000000
960.652649 196566.000000
962.699219 198194.000000
964.745056 196552.000000
966.790100 197130.000000
968.834351 196236.000000
970.877930 197116.000000
972.920654 197497.000000
974.962708 197556.000000
977.003967 196518.000000
979.044495 199074.000000
981.084229 197301.000000
983.123230 197538.000000
985.161438 196610.000000
987.198975 198443.000000
989.235718 198940.000000
991.271667 197450.000000
993.306885 197287.000000
995.341370 198431.000000
997.375122 199524.000000
999.408081 198696.000000
1001.440308 198723.000000
1003.471741 200910.000000
1005.502502 200964.000000
1007.532471 200641.000000
1009.561646 199033.000000
1011.590149 202620.000000
1013.617859 202508.000000
1015.644775 200092.000000
1017.671021 201449.000000
1019.696472 204275.000000
1021.721191 203451.000000
1023.745178 203635.000000
1025.768433 202531.000000
1027.790894 203653.000000
1029.812622 205337.000000
1031.833496 203095.000000
1033.853760 204548.000000
1035.873291 206337.000000
1037.891968 205623.000000
1039.909912 204926.000000
1041.927246 203396.000000
1043.943726 207187.000000
1045.959473 205154.000000
1047.974487 205209.000000
1049.988770 205130.000000
1052.002197 206328.000000
1054.015015 205419.000000
1056.026978 193937.000000
1058.038330 203341.000000
1060.048828 206200.000000
1062.058594 206629.000000
1064.067749 205125.000000
1066.076050 204638.000000
1068.083618 206152.000000
1070.090454 204590.000000
1072.096436 205284.000000
1074.101807 203064.000000
1076.106445 205670.000000
1078.110229 205433.000000
1080.113403 203864.000000
1082.115845 203447.000000
1084.117432 205126.000000
1086.118286 205480.000000
1088.118530 204790.000000
1090.117920 204813.000000
1092.116577 209199.000000
1094.114502 207784.000000
1096.111694 206606.000000
1098.108154 205033.000000
1100.103882 207348.000000
1102.098877 207010.000000
1104.093140 206030.000000
1106.086670 204338.000000
1108.079468 203723.000000
1110.071533 205457.000000
1112.062866 204703.000000
1114.053467 205108.000000
1116.043213 207070.000000
1118.032349 207062.000000
1120.020752 206509.000000
1122.008423 206452.000000
1123.995239 208730.000000
1125.981445 207888.000000
1127.966919 207777.000000
1129.951538 208231.000000
1131.935547 208685.000000
1133.918823 208924.000000
1135.901245 207956.000000
1137.883057 209209.000000
1139.864136 210997.000000
1141.844360 211478.000000
1143.823975 209815.000000
1145.802856 210399.000000
1147.780884 211958.000000
1149.758301 212341.000000
1151.734985 211496.000000
1153.710815 210609.000000
1155.686035 213228.000000
1157.660522 212791.000000
1159.634277 210875.000000
1161.607300 210111.000000
1163.579590 212278.000000
1165.551147 212508.000000
1167.521851 211523.000000
1169.491943 210742.000000
1171.461426 212432.000000
1173.430054 212374.000000
1175.397949 211174.000000
1177.365112 211248.000000
1179.331543 213097.000000
1181.297241 211890.000000
1183.262329 210349.000000
1185.226562 210859.000000
1187.190186 212230.000000
1189.152954 210667.000000
1191.115112 210087.000000
1193.076416 209922.000000
1195.037109 212703.000000
1196.997070 211353.000000
1198.956299 208906.000000
1200.914795 210762.000000
1202.872559 211858.000000
1204.829590 212999.000000
1206.785889 211722.000000
1208.741455 211289.000000
1210.696411 214288.000000
1212.650513 212549.000000
1214.604004 213337.000000
1216.556641 212728.000000
1218.508667 215577.000000
1220.459961 215225.000000
1222.410522 214322.000000
1224.360352 214462.000000
1226.309448 216509.000000
1228.257812 216310.000000
1230.205566 216462.000000
1232.152466 215355.000000
1234.098755 217987.000000
1236.044189 218075.000000
1237.989014 217509.000000
1239.933105 216453.000000
1241.876465 219527.000000
1243.819092 219621.000000
1245.761108 218963.000000
1247.702271 218830.000000
1249.642822 220290.000000
1251.582520 218982.000000
1253.521606 219660.000000
1255.459961 218224.000000
1257.397583 220709.000000
1259.334595 220752.000000
1261.270752 219927.000000
1263.206299 219907.000000
1265.141113 221515.000000
1267.075073 219552.000000
1269.008423 219760.000000
1270.941162 218939.000000
1272.873047 221869.000000
1274.804321 221533.000000
1276.734741 220745.000000
1278.664551 220068.000000
1280.593628 220650.000000
1282.521973 221200.000000
1284.449707 219843.000000
1286.376587 220356.000000
1288.302856 221959.000000
1290.228394 221816.000000
1292.153198 220107.000000
1294.077271 219426.000000
1296.000732 221951.000000
1297.923340 222407.000000
1299.845337 220199.000000
1301.766602 220691.000000
1303.687134 223146.000000
1305.607056 223776.000000
1307.526123 222441.000000
1309.444580 221995.000000
1311.362305 224505.000000
1313.279419 223737.000000
1315.195679 223216.000000
1317.111328 221555.000000
1319.026245 224644.000000
1320.940430 224720.000000
1322.853882 223626.000000
1324.766724 223285.000000
1326.678711 226689.000000
1328.590088 226810.000000
1330.500732 225445.000000
1332.410767 225364.000000
1334.320068 227599.000000
1336.228516 228308.000000
1338.136475 226894.000000
1340.043579 227287.000000
1341.950073 230306.000000
1343.855713 229209.000000
1345.760864 229348.000000
1347.665161 229476.000000
1349.568848 231576.000000
1351.471680 231573.000000
1353.373901 230799.000000
1355.275513 230431.000000
1357.176270 232110.000000
1359.076416 231037.000000
1360.975830 230434.000000
1362.874634 229440.000000
1364.772705 232193.000000
1366.669922 231864.000000
1368.566650 230752.000000
1370.462524 230530.000000
1372.357788 230401.000000
1374.252319 231075.000000
1376.146118 230218.000000
1378.039307 229325.000000
1379.931763 231342.000000
1381.823486 231112.000000
1383.714478 229931.000000
1385.604858 228285.000000
1387.494507 230745.000000
1389.383423 229477.000000
1391.271729 229189.000000
1393.159302 227782.000000
1395.046143 229497.000000
1396.932373 228676.000000
1398.817871 227108.000000
1400.702637 227423.000000
1402.586670 228785.000000
1404.470093 228910.000000
1406.352783 225595.000000
1408.234741 224279.000000
1410.116089 228222.000000
1411.996704 228343.000000
1413.876709 223878.000000
1415.755859 225596.000000
1417.634399 226298.000000
1419.512329 226173.000000
1421.389404 224836.000000
1423.265869 224666.000000
1425.141724 227358.000000
1427.016724 226579.000000
1428.891113 225834.000000
1430.764893 225942.000000
1432.637817 229162.000000
1434.510132 226081.000000
1436.381836 226382.000000
1438.252808 226808.000000
1440.123047 229406.000000
1441.992554 228557.000000
1443.861450 221743.000000
1445.729614 226264.000000
1447.597168 231478.000000
1449.463989 227852.000000
1451.330078 229350.000000
1453.195435 230024.000000
1455.060181 234469.000000
1456.924316 232539.000000
1458.787720 232132.000000
1460.650391 232124.000000
1462.512329 234260.000000
1464.373657 233533.000000
1466.234253 232062.000000
1468.094238 232736.000000
1469.953491 237380.000000
1471.812012 235370.000000
1473.669922 234297.000000
1475.527222 234457.000000
1477.383667 235431.000000
1479.239502 236876.000000
1481.094727 234966.000000
1482.949097 229774.000000
1484.802979 237211.000000
1486.656006 234501.000000
1488.508423 236020.000000
1490.360229 231944.000000
1492.211182 238492.000000
1494.061646 237326.000000
1495.911255 236135.000000
1497.760254 235516.000000
1499.608643 237557.000000
1501.456299 236800.000000
1503.303223 234145.000000
1505.149536 234754.000000
1506.995117 235528.000000
1508.840088 235766.000000
1510.684326 232607.000000
1512.527832 233957.000000
1514.370728 235594.000000
1516.213013 235835.000000
1518.054565 234170.000000
1519.895386 232189.000000
1521.735596 236051.000000
1523.575073 235958.000000
1525.413818 233488.000000
1527.251953 232347.000000
1529.089478 235664.000000
1530.926270 232331.000000
1532.762329 231890.000000
1534.597778 232291.000000
1536.432617 234795.000000
1538.266602 234296.000000
1540.100098 232781.000000
1541.932739 233642.000000
1543.764893 234489.000000
1545.596191 236031.000000
1547.427002 234229.000000
1549.256958 234022.000000
1551.086304 236159.000000
1552.915039 235876.000000
1554.743042 234626.000000
1556.570435 233835.000000
1558.397095 237365.000000
1560.223022 236984.000000
1562.048340 236748.000000
1563.873047 235773.000000
1565.697021 238891.000000
1567.520264 237777.000000
1569.342896 237984.000000
1571.164917 236846.000000
1572.986206 239969.000000
1574.806763 238836.000000
1576.626709 238708.000000
1578.446045 237349.000000
1580.264648 241394.000000
1582.082642 240986.000000
1583.899902 239488.000000
1585.716431 237685.000000
1587.532349 243184.000000
1589.347656 242744.000000
1591.162231 241254.000000
1592.976196 239558.000000
1594.789429 243125.000000
1596.602051 243062.000000
1598.413940 236857.000000
1600.225220 240306.000000
1602.035767 244172.000000
1603.845703 243981.000000
1605.655029 241015.000000
1607.463623 238709.000000
1609.271484 243998.000000
1611.078735 242458.000000
1612.885376 240192.000000
1614.691284 238055.000000
1616.496582 243997.000000
1618.301147 240984.000000
1620.105103 240830.000000
1621.908325 240342.000000
1623.710938 242912.000000
1625.512817 242269.000000
1627.314087 237740.000000
1629.114746 237350.000000
1630.914673 241983.000000
1632.713989 240470.000000
1634.512573 238951.000000
1636.310547 238712.000000
1638.107910 242409.000000
1639.904541 241146.000000
1641.700439 238440.000000
1643.495850 239290.000000
1645.290405 241133.000000
1647.084473 241756.000000
1648.877808 239254.000000
1650.670410 239138.000000
1652.462524 243206.000000
1654.253784 239963.000000
1656.044556 239564.000000
1657.834595 241100.000000
1659.623901 241902.000000
1661.412598 242486.000000
1663.200684 239193.000000
1664.988037 242172.000000
1666.774780 244426.000000
1668.560913 244775.000000
1670.346313 241147.000000
1672.131104 242784.000000
1673.915161 246546.000000
1675.698608 244928.000000
1677.481445 244382.000000
1679.263550 243918.000000
1681.045044 248751.000000
1682.825928 247795.000000
1684.606079 244623.000000
1686.385498 246686.000000
1688.164429 250275.000000
1689.942627 250357.000000
1691.720215 247021.000000
1693.497070 246640.000000
1695.273315 250560.000000
1697.048828 252109.000000
1698.823853 250410.000000
1700.598145 248414.000000
1702.371704 252333.000000
1704.144653 251653.000000
1705.916992 250852.000000
1707.688599 251326.000000
1709.459717 254311.000000
1711.229980 253601.000000
1712.999756 252457.000000
1714.768799 250196.000000
1716.537231 256045.000000
1718.304932 254598.000000
1720.072021 252975.000000
1721.838501 252120.000000
1723.604248 256923.000000
1725.369507 256688.000000
1727.133911 253124.000000
1728.897827 252205.000000
1730.661011 255972.000000
1732.423584 256281.000000
1734.185425 253980.000000
1735.946655 252198.000000
1737.707275 256880.000000
1739.467285 256512.000000
1741.226562 252294.000000
1742.985229 253166.000000
1744.743286 254927.000000
1746.500610 256489.000000
1748.257324 251645.000000
1750.013428 249539.000000
1751.768799 256703.000000
1753.523560 255564.000000
1755.277710 252809.000000
1757.031250 252349.000000
1758.784058 255785.000000
1760.536255 255666.000000
1762.287720 253456.000000
1764.038696 254315.000000
1765.788940 256376.000000
1767.538574 254075.000000
1769.287476 252132.000000
1771.035767 253174.000000
1772.783447 253081.000000
1774.530518 252919.000000
1776.276978 251045.000000
1778.022705 249853.000000
1779.767822 253551.000000
1781.512207 255361.000000
1783.256104 253764.000000
1784.999268 252146.000000
1786.741821 255803.000000
1788.483643 255053.000000
1790.224854 253216.000000
1791.965576 250970.000000
1793.705444 254699.000000
1795.444824 253158.000000
1797.183472 252938.000000
1798.921509 246999.000000
1800.658936 255173.000000
1802.395752 254417.000000
1804.131836 250164.000000
1805.867310 250728.000000
1807.602173 253604.000000
1809.336426 253710.000000
1811.069946 251747.000000
1812.802856 250809.000000
1814.535156 255336.000000
1816.266846 252137.000000
1817.997803 252082.000000
1819.728149 251514.000000
1821.458008 254695.000000
1823.187012 252733.000000
1824.915527 250830.000000
1826.643311 249492.000000
1828.370483 252475.000000
1830.097046 253401.000000
1831.822998 252292.000000
1833.548340 246716.000000
1835.272949 254783.000000
1836.996948 254208.000000
1838.720337 251555.000000
1840.443115 252313.000000
1842.165161 254216.000000
1843.886597 254179.000000
1845.607422 251049.000000
1847.327637 251651.000000
1849.047241 250166.000000
1850.766235 253494.000000
1852.484497 252204.000000
1854.202148 250799.000000
1855.919189 254201.000000
1857.635620 253659.000000
1859.351318 251082.000000
1861.066528 250480.000000
1862.781006 250601.000000
1864.494873 251759.000000
1866.208130 251175.000000
1867.920776 248351.000000
1869.632690 255312.000000
1871.344116 254491.000000
1873.054810 252433.000000
1874.764893 249495.000000
1876.474365 255262.000000
1878.183105 254260.000000
1879.891357 251910.000000
1881.598877 252078.000000
1883.305908 254428.000000
1885.012207 254469.000000
1886.717896 252650.000000
1888.422852 251304.000000
1890.127319 256586.000000
1891.831055 255529.000000
1893.534302 251513.000000
1895.236816 253425.000000
1896.938721 257642.000000
1898.640015 256329.000000
1900.340698 254341.000000
1902.040649 255256.000000
1903.740112 255328.000000
1905.438843 257051.000000
1907.136963 254765.000000
1908.834595 254846.000000
1910.531494 254391.000000
1912.227661 258588.000000
1913.923340 255704.000000
1915.618408 254344.000000
1917.312744 259761.000000
1919.006592 259056.000000
1920.699707 257317.000000
1922.392212 257564.000000
1924.084106 261077.000000
1925.775391 260127.000000
1927.466064 257155.000000
1929.156128 256085.000000
1930.845459 258821.000000
1932.534302 260000.000000
1934.222412 255703.000000
1935.909912 257536.000000
1937.596924 257708.000000
1939.283203 261494.000000
1940.968872 259496.000000
1942.653931 256604.000000
1944.338257 260675.000000
1946.022095 258564.000000
1947.705322 259039.000000
1949.387817 257896.000000
1951.069824 263408.000000
1952.751099 261958.000000
1954.431885 258816.000000
1956.111938 259240.000000
1957.791382 263200.000000
1959.470215 259609.000000
1961.148438 261032.000000
1962.826050 260154.000000
1964.503052 264065.000000
1966.179443 264608.000000
1967.855225 261879.000000
1969.530273 261944.000000
1971.204834 265168.000000
1972.878662 265134.000000
1974.552002 262299.000000
1976.224609 262187.000000
1977.896729 264068.000000
1979.568115 266531.000000
1981.238892 261861.000000
1982.909180 263154.000000
1984.578735 267582.000000
1986.247681 265558.000000
1987.916016 264901.000000
1989.583740 264265.000000
1991.250854 268423.000000
1992.917358 267467.000000
1994.583252 266121.000000
1996.248535 265662.000000
1997.913208 269729.000000
1999.577271 268680.000000
2001.240723 267159.000000
2002.903442 264279.000000
2004.565674 270925.000000
2006.227295 271478.000000
2007.888306 267095.000000
2009.548584 268444.000000
2011.208374 272741.000000
2012.867554 272764.000000
2014.526001 270169.000000
2016.183960 270601.000000
2017.841187 272002.000000
2019.497925 272980.000000
2021.154053 270807.000000
2022.809448 269926.000000
2024.464355 274980.000000
2026.118530 273150.000000
2027.772217 268667.000000
2029.425171 271014.000000
2031.077637 277036.000000
2032.729492 275707.000000
2034.380615 273600.000000
2036.031250 272707.000000
2037.681152 276918.000000
2039.330566 277243.000000
2040.979370 273893.000000
2042.627441 271824.000000
2044.275024 277460.000000
2045.921997 277415.000000
2047.568237 274063.000000
2049.213867 273179.000000
2050.859131 276275.000000
2052.503662 278196.000000
2054.147461 273085.000000
2055.790771 273514.000000
2057.433350 276884.000000
2059.075439 276736.000000
2060.717041 271668.000000
2062.357910 273165.000000
2063.998047 277242.000000
2065.637695 277170.000000
2067.276855 273764.000000
2068.915283 273901.000000
2070.552979 275546.000000
2072.190186 276038.000000
2073.826904 272485.000000
2075.462891 274916.000000
2077.098389 277468.000000
2078.733154 273707.000000
2080.367432 274361.000000
2082.000977 274482.000000
2083.634033 273039.000000
2085.266357 274672.000000
2086.898193 271945.000000
2088.529297 272890.000000
2090.159912 277894.000000
2091.790039 276652.000000
2093.419189 274590.000000
2095.048096 273739.000000
2096.676270 278317.000000
2098.303955 275041.000000
2099.930908 272035.000000
2101.557129 273507.000000
2103.182861 278332.000000
2104.808105 278338.000000
2106.432617 275255.000000
2108.056641 275557.000000
2109.680176 280002.000000
2111.302734 279383.000000
2112.925049 277017.000000
2114.546631 276770.000000
2116.167480 277250.000000
2117.787842 276821.000000
2119.407715 278755.000000
2121.026855 279252.000000
2122.645508 282414.000000
2124.263428 283186.000000
2125.880859 281033.000000
2127.497559 279992.000000
2129.113770 283617.000000
2130.729492 284722.000000
2132.344482 283797.000000
2133.958740 281381.000000
2135.572510 283675.000000
2137.185791 287424.000000
2138.798340 284180.000000
2140.410400 283421.000000
2142.021729 289478.000000
2143.632568 287154.000000
2145.242920 286742.000000
2146.852539 285664.000000
2148.461426 291279.000000
2150.070068 290433.000000
2151.677734 288381.000000
2153.285156 290287.000000
2154.891602 292671.000000
2156.497803 294564.000000
2158.103271 289651.000000
2159.708008 292428.000000
2161.312500 295347.000000
2162.916016 297588.000000
2164.519287 294554.000000
2166.121582 292770.000000
2167.723633 298905.000000
2169.324951 299154.000000
2170.925537 295904.000000
2172.525635 297263.000000
2174.125244 301575.000000
2175.724121 298669.000000
2177.322510 298131.000000
2178.920410 299048.000000
2180.517578 302723.000000
2182.114014 302193.000000
2183.709961 298914.000000
2185.305420 299301.000000
2186.900391 304465.000000
2188.494629 303918.000000
2190.088135 301292.000000
2191.681152 300598.000000
2193.273682 305221.000000
2194.865479 304354.000000
2196.456787 298567.000000
2198.047363 298573.000000
2199.637451 305145.000000
2201.227051 303195.000000
2202.815918 299536.000000
2204.404297 301171.000000
2205.991943 305289.000000
2207.579102 303987.000000
2209.165771 301915.000000
2210.751709 301584.000000
2212.337158 306007.000000
2213.921875 303841.000000
2215.506104 301718.000000
2217.089844 299959.000000
2218.672852 306262.000000
2220.255371 305898.000000
2221.837158 301496.000000
2223.418457 301582.000000
2224.999268 303629.000000
2226.579346 305332.000000
2228.158691 300401.000000
2229.737793 302389.000000
2231.316162 306036.000000
2232.893799 303861.000000
2234.471191 299911.000000
2236.047607 299023.000000
2237.623779 302121.000000
2239.199219 303122.000000
2240.773926 301404.000000
2242.348389 300241.000000
2243.921875 304703.000000
2245.495117 303903.000000
2247.067627 301292.000000
2248.639648 299717.000000
2250.210938 304086.000000
2251.781738 304292.000000
2253.351807 300681.000000
2254.921631 300970.000000
2256.490479 305167.000000
2258.059082 305758.000000
2259.626953 299480.000000
2261.194092 302569.000000
2262.760986 304369.000000
2264.326904 306615.000000
2265.892578 304755.000000
2267.457520 304158.000000
2269.021973 307408.000000
2270.585693 308261.000000
2272.148926 304909.000000
2273.711670 304304.000000
2275.273682 307931.000000
2276.835205 309155.000000
2278.395996 302335.000000
2279.956299 301718.000000
2281.516113 310726.000000
2283.075439 312798.000000
2284.634033 309273.000000
2286.191895 308162.000000
2287.749512 314652.000000
2289.306396 313120.000000
2290.862549 311270.000000
2292.418213 311405.000000
2293.973389 315929.000000
2295.528076 316584.000000
2297.082031 311659.000000
2298.635254 310339.000000
2300.188232 314390.000000
2301.740479 317130.000000
2303.292236 313448.000000
2304.843262 312130.000000
2306.393799 317416.000000
2307.943604 318084.000000
2309.493164 313328.000000
2311.041992 311070.000000
2312.590088 318056.000000
2314.137695 317893.000000
2315.684814 313887.000000
2317.231445 315000.000000
2318.777344 319358.000000
2320.322754 317100.000000
2321.867432 317124.000000
2323.411621 314598.000000
2324.955322 318290.000000
2326.498291 319093.000000
2328.040771 317068.000000
2329.582764 310645.000000
2331.124023 319308.000000
2332.664795 318836.000000
2334.205078 315396.000000
2335.744629 316766.000000
2337.283691 320310.000000
2338.822266 317794.000000
2340.360107 316222.000000
2341.897461 314095.000000
2343.434326 317591.000000
2344.970459 318756.000000
2346.506104 317268.000000
2348.041260 315836.000000
2349.575684 319660.000000
2351.109619 317239.000000
2352.643066 315808.000000
2354.175781 314212.000000
2355.708008 316003.000000
2357.239746 317302.000000
2358.770752 314553.000000
2360.301270 313763.000000
2361.831299 318168.000000
2363.360596 317338.000000
2364.889404 313811.000000
2366.417480 313168.000000
2367.945312 318548.000000
2369.472412 317229.000000
2370.999023 314753.000000
2372.524902 313595.000000
2374.050293 318674.000000
2375.575195 318697.000000
2377.099365 316720.000000
2378.623047 313561.000000
2380.146240 319222.000000
2381.668701 319872.000000
2383.190674 314025.000000
2384.712158 314507.000000
2386.233154 320190.000000
2387.753418 320716.000000
2389.273193 317380.000000
2390.792236 317328.000000
2392.311035 321820.000000
2393.828857 322890.000000
2395.346436 318815.000000
2396.863281 317959.000000
2398.379639 322095.000000
2399.895508 323333.000000
2401.410645 319456.000000
2402.925537 318795.000000
2404.439453 323006.000000
2405.953125 322564.000000
2407.466064 319677.000000
2408.978516 320966.000000
2410.490234 325075.000000
2412.001465 325029.000000
2413.512207 317424.000000
2415.022461 320451.000000
2416.531982 326223.000000
2418.041016 325325.000000
2419.549561 323565.000000
2421.057617 323089.000000
2422.564941 326952.000000
2424.071777 328657.000000
2425.577881 325159.000000
2427.083496 323341.000000
2428.588623 328790.000000
2430.093262 328757.000000
2431.597168 326526.000000
2433.100586 324581.000000
2434.603516 328812.000000
2436.105957 329864.000000
2437.607666 326205.000000
2439.108887 326989.000000
2440.609375 330464.000000
2442.109619 331220.000000
2443.609131 328365.000000
2445.107910 325457.000000
2446.606445 331772.000000
2448.104248 332673.000000
2449.601562 327568.000000
2451.098389 327175.000000
2452.594482 329789.000000
2454.090088 331812.000000
2455.585205 327950.000000
2457.079590 326972.000000
2458.573486 333832.000000
2460.066895 332565.000000
2461.559814 329526.000000
2463.052002 328166.000000
2464.543701 333829.000000
2466.034912 333795.000000
2467.525635 330059.000000
2469.015625 329851.000000
2470.505127 334372.000000
2471.994141 331318.000000
2473.482422 330396.000000
2474.970215 329616.000000
2476.457520 334819.000000
2477.944336 335802.000000
2479.430420 331597.000000
2480.916016 332718.000000
2482.401123 331763.000000
2483.885742 336037.000000
2485.369629 331685.000000
2486.853027 332386.000000
2488.335938 334203.000000
2489.818115 336650.000000
2491.300049 335246.000000
2492.781006 333290.000000
2494.261719 336675.000000
2495.741943 338640.000000
2497.221436 335265.000000
2498.700439 335340.000000
2500.178711 340477.000000
2501.656738 338234.000000
2503.134033 337195.000000
2504.610840 334983.000000
2506.086914 341095.000000
2507.562744 337490.000000
2509.037842 337464.000000
2510.512451 336925.000000
2511.986328 344617.000000
2513.459961 342193.000000
2514.932861 339864.000000
2516.405273 340660.000000
2517.876953 344049.000000
2519.348389 344311.000000
2520.819092 342378.000000
2522.289307 341130.000000
2523.758789 343313.000000
2525.228027 347830.000000
2526.696533 343032.000000
2528.164551 344302.000000
2529.631836 346173.000000
2531.098877 348838.000000
2532.565186 346656.000000
2534.031006 344792.000000
2535.496094 342570.000000
2536.960938 349715.000000
2538.425049 345981.000000
2539.888672 346736.000000
2541.351807 351467.000000
2542.814209 350855.000000
2544.276123 349052.000000
2545.737549 348214.000000
2547.198486 353306.000000
2548.658936 354202.000000
2550.118652 352168.000000
2551.577881 349036.000000
2553.036621 353278.000000
2554.494629 353629.000000
2555.952393 349969.000000
2557.409424 350699.000000
2558.865967 356529.000000
2560.321777 355714.000000
2561.777344 351923.000000
2563.232178 350930.000000
2564.686523 356354.000000
2566.140381 356318.000000
2567.593506 353074.000000
2569.046143 352255.000000
2570.498291 357487.000000
2571.949951 356462.000000
2573.401123 353916.000000
2574.851562 351828.000000
2576.301514 357138.000000
2577.750977 356095.000000
2579.199951 353943.000000
2580.648438 352662.000000
2582.096191 358493.000000
2583.543457 357230.000000
2584.990234 353997.000000
2586.436279 354104.000000
2587.882080 359073.000000
2589.327148 355886.000000
2590.771729 354689.000000
2592.215820 354741.000000
2593.659180 359715.000000
2595.102295 358730.000000
2596.544678 355724.000000
2597.986572 354867.000000
2599.427979 359344.000000
2600.868652 359793.000000
2602.308838 355623.000000
2603.748535 354618.000000
2605.187744 359645.000000
2606.626465 359133.000000
2608.064697 356586.000000
2609.502197 351623.000000
2610.939209 360665.000000
2612.375732 358480.000000
2613.811523 354037.000000
2615.247070 355432.000000
2616.681885 360603.000000
2618.116211 360231.000000
2619.550049 353899.000000
2620.983398 355811.000000
2622.416016 360907.000000
2623.848145 360327.000000
2625.279785 354918.000000
2626.710938 354887.000000
2628.141602 361487.000000
2629.571533 362495.000000
2631.001221 357404.000000
2632.430176 357356.000000
2633.858398 361277.000000
2635.286377 364127.000000
2636.713867 359938.000000
2638.140625 358633.000000
2639.566895 362726.000000
2640.992676 362495.000000
2642.417969 353897.000000
2643.842529 361693.000000
2645.266846 362536.000000
2646.690430 364219.000000
2648.113525 361873.000000
2649.535889 360195.000000
2650.958008 365196.000000
2652.379395 365161.000000
2653.800537 360597.000000
2655.220947 360540.000000
2656.640869 366373.000000
2658.060059 365948.000000
2659.479004 363312.000000
2660.897217 362969.000000
2662.314941 367315.000000
2663.732178 366881.000000
2665.148926 364374.000000
2666.565186 362638.000000
2667.980713 368401.000000
2669.395752 367695.000000
2670.810303 365261.000000
2672.224365 364262.000000
2673.637939 368972.000000
2675.050781 368468.000000
2676.463379 364132.000000
2677.875244 363342.000000
2679.286621 370367.000000
2680.697510 369303.000000
2682.107910 364290.000000
2683.517578 365317.000000
2684.927002 370366.000000
2686.335693 368322.000000
2687.743896 366278.000000
2689.151611 366114.000000
2690.558594 369963.000000
2691.965332 372454.000000
2693.371338 367708.000000
2694.776855 366902.000000
2696.181885 370590.000000
2697.586426 372100.000000
2698.990479 368587.000000
2700.393799 367470.000000
2701.796875 372805.000000
2703.199219 373178.000000
2704.601074 368505.000000
2706.002441 369807.000000
2707.403320 374368.000000
2708.803467 374606.000000
2710.203369 368308.000000
2711.602539 370725.000000
2713.001221 375121.000000
2714.399414 374901.000000
2715.797119 369563.000000
2717.194092 371994.000000
2718.590820 369770.000000
2719.986816 376836.000000
2721.382324 374587.000000
2722.777344 372344.000000
2724.171875 375469.000000
2725.565918 376635.000000
2726.959473 371318.000000
2728.352295 370037.000000
2729.744629 378128.000000
2731.136719 377696.000000
2732.528076 374225.000000
2733.918701 374651.000000
2735.309082 377545.000000
2736.698975 378224.000000
2738.088135 375993.000000
2739.476807 375660.000000
2740.865234 379812.000000
2742.252686 378899.000000
2743.639893 376440.000000
2745.026611 375778.000000
2746.412842 379074.000000
2747.798340 380027.000000
2749.183350 379448.000000
2750.568115 377056.000000
2751.952148 382257.000000
2753.335449 381721.000000
2754.718506 377700.000000
2756.101074 377440.000000
2757.482910 383945.000000
2758.864502 380511.000000
2760.245361 379200.000000
2761.625732 378254.000000
2763.005615 383968.000000
2764.385010 383347.000000
2765.763672 380417.000000
2767.142090 379387.000000
2768.519775 383557.000000
2769.897217 383419.000000
2771.273926 382327.000000
2772.650146 382352.000000
2774.025879 385602.000000
2775.400879 384005.000000
2776.775635 382008.000000
2778.149902 381289.000000
2779.523438 385582.000000
2780.896484 386213.000000
2782.269287 382810.000000
2783.641357 383420.000000
2785.012939 385810.000000
2786.383789 387872.000000
2787.754395 383955.000000
2789.124512 380985.000000
2790.493896 388397.000000
2791.862793 386984.000000
2793.231445 385887.000000
2794.599365 384273.000000
2795.966797 390705.000000
2797.333740 389971.000000
2798.699951 387521.000000
2800.065918 377868.000000
2801.431152 389523.000000
2802.796143 390969.000000
2804.160400 388953.000000
2805.524170 387593.000000
2806.887451 392029.000000
2808.250244 392687.000000
2809.612549 390412.000000
2810.974365 389424.000000
2812.335693 393060.000000
2813.696289 394571.000000
2815.056396 391416.000000
2816.416260 393338.000000
2817.775391 395280.000000
2819.134033 394762.000000
2820.492188 392218.000000
2821.849854 391991.000000
2823.207031 396680.000000
2824.563477 396399.000000
2825.919678 392262.000000
2827.275391 394863.000000
2828.630371 396275.000000
2829.984863 397898.000000
2831.338867 391450.000000
2832.692383 394825.000000
2834.045410 400626.000000
2835.397949 398709.000000
2836.750000 395647.000000
2838.101562 395422.000000
2839.452393 398770.000000
2840.802979 399475.000000
2842.152832 395020.000000
2843.502441 396574.000000
2844.851318 402467.000000
2846.199707 401296.000000
2847.547607 397093.000000
2848.895020 397020.000000
2850.241943 400650.000000
2851.588379 401185.000000
2852.934082 397781.000000
2854.279541 398103.000000
2855.624268 400146.000000
2856.968750 400886.000000
2858.312500 398056.000000
2859.655762 398534.000000
2860.998535 402396.000000
2862.341064 402211.000000
2863.682861 399161.000000
2865.023926 396186.000000
2866.364746 403997.000000
2867.705078 402651.000000
2869.044922 399297.000000
2870.384033 398576.000000
2871.722900 403277.000000
2873.061035 402983.000000
2874.398682 401133.000000
2875.736084 394576.000000
2877.072754 403508.000000
2878.408936 401241.000000
2879.744629 394029.000000
2881.079834 400200.000000
2882.414551 402496.000000
2883.748779 403549.000000
2885.082275 401021.000000
2886.415527 400635.000000
2887.748291 404914.000000
2889.080322 403078.000000
2890.411865 398188.000000
2891.743164 399577.000000
2893.073730 404180.000000
2894.403809 405809.000000
2895.733643 400985.000000
2897.062744 400912.000000
2898.391357 405867.000000
2899.719482 403354.000000
2901.046875 402130.000000
2902.374023 399625.000000
2903.700684 405969.000000
2905.026855 403123.000000
2906.352295 402263.000000
2907.677490 401804.000000
2909.001953 407474.000000
2910.326172 406234.000000
2911.649658 402262.000000
2912.972656 401156.000000
2914.295410 406113.000000
2915.617432 406872.000000
2916.938965 404445.000000
2918.260010 399057.000000
2919.580566 406738.000000
2920.900635 406289.000000
2922.220215 404722.000000
2923.539307 401320.000000
2924.857910 407783.000000
2926.175781 405751.000000
2927.493408 404674.000000
2928.810547 404797.000000
2930.126953 408739.000000
2931.443115 407989.000000
2932.758545 405199.000000
2934.073486 407067.000000
2935.388184 407771.000000
2936.702148 410075.000000
2938.015625 408542.000000
2939.328857 407303.000000
2940.641357 408123.000000
2941.953369 409808.000000
2943.264893 407201.000000
2944.575928 409051.000000
2945.886475 413458.000000
2947.196533 412044.000000
2948.506104 408432.000000
2949.815186 409464.000000
2951.123535 414478.000000
2952.431641 415559.000000
2953.739258 412597.000000
2955.046143 413757.000000
2956.352783 416884.000000
2957.658936 416826.000000
2958.964355 413942.000000
2960.269531 414358.000000
2961.573975 415815.000000
2962.878174 419395.000000
2964.181641 417016.000000
2965.484619 414231.000000
2966.787354 418129.000000
2968.089355 419352.000000
2969.390869 416099.000000
2970.691895 415928.000000
2971.992676 418484.000000
2973.292725 419757.000000
2974.592285 418432.000000
2975.891357 416271.000000
2977.189941 421896.000000
2978.488037 420417.000000
2979.785645 419246.000000
2981.082764 418429.000000
2982.379395 422067.000000
2983.675537 421250.000000
2984.971191 420268.000000
2986.266113 419673.000000
2987.560791 423738.000000
2988.854980 421426.000000
2990.148682 419074.000000
2991.441895 418034.000000
2992.734375 424300.000000
2994.026611 423323.000000
2995.318359 422481.000000
2996.609375 420891.000000
2997.900146 425225.000000
2999.190430 426329.000000
3000.479980 422981.000000
3001.769287 423412.000000
3003.057861 427506.000000
3004.346191 427166.000000
3005.633789 424467.000000
3006.921143 423028.000000
3008.207764 427012.000000
3009.494141 427323.000000
3010.779785 424669.000000
3012.064941 424500.000000
3013.349854 428761.000000
3014.634033 423906.000000
3015.917969 425871.000000
3017.201172 423263.000000
3018.483887 429761.000000
3019.766357 427012.000000
3021.048096 424923.000000
3022.329346 424505.000000
3023.610352 429591.000000
3024.890625 428714.000000
3026.170410 426495.000000
3027.449951 425992.000000
3028.728760 426788.000000
3030.007080 428284.000000
3031.284912 426858.000000
3032.562500 426358.000000
3033.839355 431328.000000
3035.115723 428487.000000
3036.391602 424260.000000
3037.666992 425558.000000
3038.942139 429521.000000
3040.216553 429900.000000
3041.490479 425384.000000
3042.763916 426061.000000
3044.037109 431213.000000
3045.309570 429059.000000
3046.581543 426791.000000
3047.853027 426849.000000
3049.124023 429536.000000
3050.394775 430751.000000
3051.664795 428232.000000
3052.934326 427767.000000
3054.203369 428371.000000
3055.472168 432855.000000
3056.740234 427505.000000
3058.007812 430018.000000
3059.274902 433263.000000
3060.541748 433466.000000
3061.807861 430836.000000
3063.073486 430019.000000
3064.338623 433982.000000
3065.603516 434732.000000
3066.867676 429646.000000
3068.131348 429315.000000
3069.394775 435263.000000
3070.657471 434739.000000
3071.919678 431073.000000
3073.181641 433830.000000
3074.442871 434233.000000
3075.703613 437589.000000
3076.964111 434451.000000
3078.223877 435182.000000
3079.483398 439303.000000
3080.742188 440674.000000
3082.000732 436053.000000
3083.258545 433772.000000
3084.516113 441594.000000
3085.772949 440625.000000
3087.029541 435453.000000
3088.285400 436415.000000
3089.541016 442187.000000
3090.795898 441456.000000
3092.050537 439961.000000
3093.304688 436884.000000
3094.558105 445401.000000
3095.811279 443798.000000
3097.063965 440181.000000
3098.315918 438089.000000
3099.567627 445729.000000
3100.818848 442755.000000
3102.069580 443025.000000
3103.319580 440301.000000
3104.569336 443608.000000
3105.818604 446018.000000
3107.067383 441984.000000
3108.315674 442845.000000
3109.563477 445765.000000
3110.810791 447829.000000
3112.057617 443330.000000
3113.303955 443930.000000
3114.549805 448142.000000
3115.795166 449184.000000
3117.040039 446070.000000
3118.284668 445847.000000
3119.528564 448958.000000
3120.771973 450617.000000
3122.014893 446100.000000
3123.257568 446769.000000
3124.499512 450053.000000
3125.740967 451100.000000
3126.982178 447100.000000
3128.222656 447390.000000
3129.462891 449284.000000
3130.702393 451672.000000
3131.941650 444641.000000
3133.180176 447543.000000
3134.418457 449807.000000
3135.656250 452350.000000
3136.893311 448486.000000
3138.130127 449776.000000
3139.366455 453801.000000
3140.602295 449713.000000
3141.837646 445159.000000
3143.072510 449316.000000
3144.306885 454597.000000
3145.540771 452140.000000
3146.774170 450667.000000
3148.007080 449804.000000
3149.239502 452630.000000
3150.471436 451867.000000
3151.703125 452196.000000
3152.934082 449939.000000
3154.164551 455085.000000
3155.394775 454911.000000
3156.624268 452062.000000
3157.853516 450897.000000
3159.082031 455900.000000
3160.310303 456827.000000
3161.538086 452886.000000
3162.765137 451606.000000
3163.991943 456436.000000
3165.218262 457409.000000
3166.444092 454475.000000
3167.669434 454053.000000
3168.894287 457335.000000
3170.118652 458209.000000
3171.342529 453797.000000
3172.565918 452238.000000
3173.788818 457271.000000
3175.011230 457830.000000
3176.233398 455772.000000
3177.454834 456463.000000
3178.676025 459560.000000
3179.896484 459649.000000
3181.116699 458522.000000
3182.336182 454365.000000
3183.555420 459065.000000
3184.774170 460595.000000
3185.992432 457677.000000
3187.210205 458634.000000
3188.427246 460650.000000
3189.644043 459900.000000
3190.860596 458820.000000
3192.076416 458658.000000
3193.291748 462235.000000
3194.506592 461309.000000
3195.721191 457552.000000
3196.935059 459121.000000
3198.148438 464022.000000
3199.361572 466083.000000
3200.574219 460431.000000
3201.786133 461839.000000
3202.997803 463408.000000
3204.208984 463080.000000
3205.419678 452515.000000
3206.629883 460651.000000
3207.839600 462366.000000
3209.048828 462601.000000
3210.257568 463174.000000
3211.465820 462775.000000
3212.673828 464422.000000
3213.881104 462435.000000
3215.088135 463973.000000
3216.294434 464981.000000
3217.500488 462516.000000
3218.706055 464363.000000
3219.910889 461945.000000
3221.115479 458659.000000
3222.319580 461745.000000
3223.523193 462173.000000
3224.726318 460853.000000
3225.929199 461656.000000
3227.131348 460234.000000
3228.333008 462235.000000
3229.534424 462428.000000
3230.735107 462642.000000
3231.935547 465212.000000
3233.135254 464991.000000
3234.334717 461890.000000
3235.533691 461650.000000
3236.732178 463219.000000
3237.930176 463924.000000
3239.127686 463119.000000
3240.324707 462160.000000
3241.521484 462984.000000
3242.717529 463193.000000
3243.913330 464662.000000
3245.108398 462609.000000
3246.303223 462645.000000
3247.497559 464692.000000
3248.691162 464423.000000
3249.884521 463825.000000
3251.077393 466185.000000
3252.269775 462625.000000
3253.461914 464852.000000
3254.653320 461831.000000
3255.844238 465040.000000
3257.034912 462678.000000
3258.224854 463850.000000
3259.414551 463936.000000
3260.603760 462573.000000
3261.792480 463179.000000
3262.980713 465312.000000
3264.168457 463167.000000
3265.355713 462890.000000
3266.542480 462055.000000
3267.728760 463181.000000
3268.914795 464103.000000
3270.100098 463108.000000
3271.285156 462823.000000
3272.469727 462533.000000
3273.653809 461827.000000
3274.837402 463769.000000
3276.020508 461953.000000
3277.203125 462454.000000
3278.385254 463873.000000
3279.566895 467272.000000
3280.748291 465451.000000
3281.929199 463370.000000
3283.109375 462820.000000
3284.289307 464187.000000
3285.468750 462396.000000
3286.647705 462828.000000
3287.826172 465672.000000
3289.004150 462709.000000
3290.181885 464724.000000
3291.358887 464408.000000
3292.535645 462978.000000
3293.711670 464861.000000
3294.887451 464854.000000
3296.062744 464727.000000
3297.237549 458713.000000
3298.411865 464381.000000
3299.585693 463386.000000
3300.759277 460006.000000
3301.932129 459297.000000
3303.104736 463372.000000
3304.276611 463803.000000
3305.448242 461767.000000
3306.619385 463202.000000
3307.790039 463473.000000
3308.960205 461304.000000
3310.129883 461890.000000
3311.299316 462767.000000
3312.468018 462970.000000
3313.636475 465082.000000
3314.804443 460197.000000
3315.971680 464481.000000
3317.138672 465412.000000
3318.305420 460685.000000
3319.471436 463317.000000
3320.636963 463541.000000
3321.802246 463619.000000
3322.966797 464146.000000
3324.131104 463236.000000
3325.294922 462880.000000
3326.458252 464569.000000
3327.621094 464861.000000
3328.783447 461762.000000
3329.945312 460837.000000
3331.106934 463086.000000
3332.267822 462547.000000
3333.428467 463006.000000
3334.588623 460814.000000
3335.748291 463777.000000
3336.907471 466816.000000
3338.066162 464085.000000
3339.224609 463845.000000
3340.382324 461725.000000
3341.539795 463955.000000
3342.696533 464165.000000
3343.853027 464462.000000
3345.009033 461759.000000
3346.164551 464182.000000
3347.319824 463687.000000
3348.474365 463914.000000
3349.628662 465104.000000
3350.782227 462265.000000
3351.935547 461684.000000
3353.088379 464090.000000
3354.240723 463087.000000
3355.392822 465551.000000
3356.544189 460683.000000
3357.695068 462461.000000
3358.845703 463118.000000
3359.995850 461063.000000
3361.145508 463818.000000
3362.294678 461481.000000
3363.443359 461054.000000
3364.591553 463784.000000
3365.739502 463662.000000
3366.886963 461399.000000
3368.033691 463012.000000
3369.180176 460539.000000
3370.326172 462771.000000
3371.471924 462377.000000
3372.616943 462294.000000
3373.761475 464848.000000
3374.905762 464421.000000
3376.049561 464763.000000
3377.192871 462453.000000
3378.335693 462840.000000
3379.478027 462273.000000
3380.619873 461605.000000
3381.761475 464263.000000
3382.902588 463545.000000
3384.042969 461955.000000
3385.183105 462023.000000
3386.322998 463230.000000
3387.462158 464199.000000
3388.600830 465826.000000
3389.739258 464775.000000
3390.877197 462805.000000
3392.014648 463222.000000
3393.151611 462075.000000
3394.288086 462587.000000
3395.424072 464841.000000
3396.559814 463942.000000
3397.694824 463544.000000
3398.829590 461353.000000
3399.963867 462088.000000
3401.097656 461867.000000
3402.230957 461889.000000
3403.364014 464838.000000
3404.496338 462156.000000
3405.628418 461527.000000
3406.760010 465237.000000
3407.891113 464169.000000
3409.021729 462812.000000
3410.152100 463553.000000
3411.281738 464988.000000
3412.411133 466057.000000
3413.540039 463685.000000
3414.668457 463522.000000
3415.796387 463895.000000
3416.924072 461574.000000
3418.051025 462240.000000
3419.177734 458061.000000
3420.303955 462113.000000
3421.429688 462177.000000
3422.554932 465001.000000
3423.679688 464133.000000
3424.804199 465107.000000
3425.928223 460876.000000
3427.051514 463192.000000
3428.174561 464996.000000
3429.297363 464113.000000
3430.419434 463823.000000
3431.541260 460915.000000
3432.662354 460139.000000
3433.783203 462951.000000
3434.903564 463297.000000
3436.023438 464449.000000
3437.143066 460068.000000
3438.261963 463472.000000
3439.380615 463723.000000
3440.498779 463145.000000
3441.616455 464290.000000
3442.733643 462483.000000
3443.850586 462640.000000
3444.966797 462798.000000
3446.082764 460482.000000
3447.198242 463333.000000
3448.313232 462264.000000
3449.427979 464459.000000
3450.541992 461711.000000
3451.655762 459514.000000
3452.769043 463327.000000
3453.881836 461926.000000
3454.994141 459614.000000
3456.105957 460302.000000
3457.217529 462710.000000
3458.328613 462604.000000
3459.439209 458754.000000
3460.549316 462035.000000
3461.658936 460990.000000
3462.768311 461187.000000
3463.876953 461535.000000
3464.985352 458854.000000
3466.093262 459212.000000
3467.200684 460772.000000
3468.307861 460123.000000
3469.414307 459465.000000
3470.520508 458759.000000
3471.626221 457548.000000
3472.731445 456800.000000
3473.836426 457024.000000
3474.940674 455381.000000
3476.044678 457905.000000
3477.148193 456465.000000
3478.251221 458773.000000
3479.353760 457851.000000
3480.456055 457503.000000
3481.557617 457465.000000
3482.658936 456067.000000
3483.759766 460943.000000
3484.860352 459065.000000
3485.960205 461809.000000
3487.059814 455647.000000
3488.158691 457771.000000
3489.257324 456477.000000
3490.355713 459348.000000
3491.453369 458786.000000
3492.550781 458629.000000
3493.647461 458479.000000
3494.743896 460204.000000
3495.840088 455946.000000
3496.935547 457559.000000
3498.030762 456435.000000
3499.125244 457818.000000
3500.219482 458382.000000
3501.313477 457969.000000
3502.406738 458499.000000
3503.499756 454919.000000
3504.592041 455482.000000
3505.684082 454817.000000
3506.775879 455471.000000
3507.866943 457990.000000
3508.957764 456374.000000
3510.047852 455481.000000
3511.137695 454208.000000
3512.227295 453058.000000
3513.316162 454189.000000
3514.404785 451896.000000
3515.492676 455496.000000
3516.580322 454881.000000
3517.667725 453646.000000
3518.754395 455248.000000
3519.840820 456597.000000
3520.926758 455478.000000
3522.012207 453984.000000
3523.097168 453345.000000
3524.181641 455337.000000
3525.265869 453484.000000
3526.349609 452198.000000
3527.432861 453699.000000
3528.515625 452707.000000
3529.598145 455020.000000
3530.680176 456053.000000
3531.761719 455696.000000
3532.842773 454059.000000
3533.923340 454410.000000
3535.003662 450493.000000
3536.083496 453133.000000
3537.162842 451052.000000
3538.241699 453253.000000
3539.320068 453266.000000
3540.398193 454248.000000
3541.475830 452913.000000
3542.552979 453690.000000
3543.629639 454728.000000
3544.706055 453066.000000
3545.781982 448874.000000
3546.857178 452902.000000
3547.932373 448947.000000
3549.006836 453541.000000
3550.081055 452383.000000
3551.154785 453618.000000
3552.228027 451088.000000
3553.300781 449054.000000
3554.373047 453305.000000
3555.445068 451771.000000
3556.516602 451961.000000
3557.587646 448793.000000
3558.658447 451969.000000
3559.728516 451780.000000
3560.798340 453477.000000
3561.867676 454690.000000
3562.936768 450618.000000
3564.005127 452665.000000
3565.073242 451138.000000
3566.140869 450352.000000
3567.208008 448154.000000
3568.274658 448593.000000
3569.341064 451555.000000
3570.406982 449693.000000
3571.472412 450457.000000
3572.537354 453538.000000
3573.602051 450916.000000
3574.666260 452007.000000
3575.729980 452781.000000
3576.793213 453596.000000
3577.856201 452069.000000
3578.918457 448629.000000
3579.980469 449974.000000
3581.041992 446776.000000
3582.103271 449899.000000
3583.163818 453039.000000
3584.224121 449422.000000
3585.284180 449934.000000
3586.343506 450077.000000
3587.402344 450642.000000
3588.460938 453763.000000
3589.519043 450027.000000
3590.576904 450636.000000
3591.634033 451556.000000
3592.690918 450473.000000
3593.747314 448467.000000
3594.803223 449371.000000
3595.858887 449877.000000
3596.913818 449195.000000
3597.968506 448453.000000
3599.022949 447566.000000
3600.076660 449359.000000
3601.130127 445968.000000
3602.183105 448283.000000
3603.235596 447873.000000
3604.287598 446521.000000
3605.339355 449909.000000
3606.390625 448100.000000
3607.441406 448257.000000
3608.491699 445510.000000
3609.541748 446316.000000
3610.591309 445685.000000
3611.640381 449561.000000
3612.688965 445931.000000
3613.737305 449337.000000
3614.785156 444467.000000
3615.832520 449017.000000
3616.879395 448947.000000
3617.926025 445670.000000
3618.972168 446572.000000
3620.017822 445327.000000
3621.062988 446482.000000
3622.107910 444117.000000
3623.152344 447020.000000
3624.196289 445495.000000
3625.239746 442477.000000
3626.282959 444892.000000
3627.325684 445343.000000
3628.367920 444339.000000
3629.409668 443123.000000
3630.451172 444557.000000
3631.492188 442525.000000
3632.532715 445404.000000
3633.572754 442571.000000
3634.612549 446745.000000
3635.651611 441663.000000
3636.690674 438647.000000
3637.729004 442454.000000
3638.767090 441766.000000
3639.804688 441781.000000
3640.841797 441306.000000
3641.878418 440277.000000
3642.914795 439179.000000
3643.950684 441497.000000
3644.986084 441261.000000
3646.020996 439658.000000
3647.055664 439354.000000
3648.089844 442656.000000
3649.123535 439741.000000
3650.156982 441468.000000
3651.189941 441987.000000
3652.222412 440380.000000
3653.254395 439698.000000
3654.285889 438834.000000
3655.317139 438244.000000
3656.347900 439149.000000
3657.378418 439782.000000
3658.408203 439030.000000
3659.437744 435449.000000
3660.466797 439782.000000
3661.495605 439385.000000
3662.523682 438408.000000
3663.551514 441160.000000
3664.578857 438447.000000
3665.605957 438887.000000
3666.632568 438262.000000
3667.658691 438440.000000
3668.684326 434645.000000
3669.709473 440706.000000
3670.734375 436129.000000
3671.758789 438015.000000
3672.782959 438191.000000
3673.806396 434947.000000
3674.829590 435225.000000
3675.852295 437451.000000
3676.874756 434978.000000
3677.896484 437950.000000
3678.917969 434720.000000
3679.939209 436682.000000
3680.959717 437873.000000
3681.979980 433620.000000
3682.999756 437897.000000
3684.019043 436842.000000
3685.038086 434140.000000
3686.056641 434006.000000
3687.074707 435444.000000
3688.092285 432363.000000
3689.109619 435844.000000
3690.126465 436255.000000
3691.142822 434348.000000
3692.158936 437030.000000
3693.174561 433773.000000
3694.189697 433030.000000
3695.204346 438203.000000
3696.218750 434452.000000
3697.232666 432379.000000
3698.246094 432205.000000
3699.259277 435179.000000
3700.271729 435481.000000
3701.283936 434763.000000
3702.295898 433010.000000
3703.307129 433812.000000
3704.318115 432085.000000
3705.328613 435058.000000
3706.338867 436596.000000
3707.348633 434823.000000
3708.357910 431919.000000
3709.366699 429244.000000
3710.375244 434820.000000
3711.383301 429512.000000
3712.390869 430005.000000
3713.397949 431010.000000
3714.404785 430669.000000
3715.411133 433412.000000
3716.417236 431575.000000
3717.422607 431202.000000
3718.427734 430708.000000
3719.432373 429702.000000
3720.436768 428959.000000
3721.440674 432585.000000
3722.444092 429701.000000
3723.447021 428895.000000
3724.449707 430750.000000
3725.451904 432771.000000
3726.453613 427483.000000
3727.454834 431050.000000
3728.455811 429942.000000
3729.456299 431342.000000
3730.456543 430403.000000
3731.456055 428957.000000
3732.455322 427683.000000
3733.454346 429982.000000
3734.452637 428375.000000
3735.450684 427164.000000
3736.448242 424425.000000
3737.445557 425318.000000
3738.442383 425969.000000
3739.438721 426444.000000
3740.434570 423718.000000
3741.430176 423969.000000
3742.425293 425971.000000
3743.419922 424046.000000
3744.414307 427118.000000
3745.407959 426246.000000
3746.401611 429502.000000
3747.394531 426060.000000
3748.387207 426013.000000
3749.379395 427551.000000
3750.371094 426119.000000
3751.362549 425325.000000
3752.353516 427649.000000
3753.343994 424255.000000
3754.334229 422205.000000
3755.323975 424622.000000
3756.313232 424273.000000
3757.302002 423444.000000
3758.290527 422582.000000
3759.278564 423962.000000
3760.266357 425323.000000
3761.253418 422531.000000
3762.240234 427348.000000
3763.226807 425502.000000
3764.212646 423834.000000
3765.198242 421818.000000
3766.183350 425700.000000
3767.168213 422879.000000
3768.152588 419137.000000
3769.136475 421832.000000
3770.119873 424329.000000
3771.103027 420993.000000
3772.085693 421302.000000
3773.068115 419655.000000
3774.049805 423095.000000
3775.031494 418096.000000
3776.012451 418499.000000
3776.993164 419781.000000
3777.973145 422148.000000
3778.953125 421828.000000
3779.932373 420614.000000
3780.911377 418949.000000
3781.889893 419746.000000
3782.868164 421719.000000
3783.845947 418553.000000
3784.823242 420496.000000
3785.800049 419757.000000
3786.776611 416699.000000
3787.752686 417993.000000
3788.728516 419556.000000
3789.703857 420270.000000
3790.678711 419950.000000
3791.653076 422133.000000
3792.627197 419259.000000
3793.600830 417114.000000
3794.573975 416671.000000
3795.546875 416927.000000
3796.519287 417032.000000
3797.491211 417284.000000
3798.462891 420209.000000
3799.433838 419076.000000
3800.404785 414063.000000
3801.375000 418737.000000
3802.344971 416533.000000
3803.314453 419182.000000
3804.283691 415876.000000
3805.252441 416781.000000
3806.220703 417524.000000
3807.188721 416128.000000
3808.156006 417409.000000
3809.123291 418589.000000
3810.089844 417238.000000
3811.056152 415812.000000
3812.021973 413939.000000
3812.987305 415213.000000
3813.952393 409328.000000
3814.916992 415993.000000
3815.881348 414890.000000
3816.845215 415332.000000
3817.808594 412690.000000
3818.771484 411817.000000
3819.734131 413998.000000
3820.696289 413608.000000
3821.657959 409273.000000
3822.619385 412790.000000
3823.580322 411571.000000
3824.541016 415327.000000
3825.500977 412807.000000
3826.460693 412439.000000
3827.420166 411136.000000
3828.379150 408987.000000
3829.337646 412143.000000
3830.295654 411208.000000
3831.253418 411594.000000
3832.210693 412936.000000
3833.167480 412142.000000
3834.124023 411507.000000
3835.080078 412459.000000
3836.035645 412046.000000
3836.990967 412838.000000
3837.945801 412692.000000
3838.900391 409417.000000
3839.854248 412327.000000
3840.807861 412397.000000
3841.761230 413553.000000
3842.714111 410599.000000
3843.666504 410728.000000
3844.618408 412409.000000
3845.570068 412766.000000
3846.521240 411986.000000
3847.472168 412413.000000
3848.422363 408932.000000
3849.372314 409840.000000
3850.322021 407562.000000
3851.271240 411154.000000
3852.219971 408622.000000
3853.168213 408456.000000
3854.116211 407215.000000
3855.063721 407606.000000
3856.010986 408199.000000
3856.957764 410800.000000
3857.904053 407627.000000
3858.850098 409197.000000
3859.795654 411920.000000
3860.740723 409621.000000
3861.685303 412383.000000
3862.629639 406733.000000
3863.573730 403822.000000
3864.517090 409824.000000
3865.460205 409782.000000
3866.403076 407178.000000
3867.345215 406646.000000
3868.287109 407048.000000
3869.228760 407565.000000
3870.169678 409854.000000
3871.110352 409173.000000
3872.050781 408552.000000
3872.990723 404763.000000
3873.930176 405461.000000
3874.869141 404908.000000
3875.807861 407624.000000
3876.746094 405899.000000
3877.684082 402508.000000
3878.621582 407873.000000
3879.558594 403911.000000
3880.495117 402685.000000
3881.431396 408511.000000
3882.367432 404313.000000
3883.302734 405765.000000
3884.237793 404636.000000
3885.172607 405909.000000
3886.106689 405463.000000
3887.040527 402021.000000
3887.974121 401431.000000
3888.907227 402195.000000
3889.839844 403502.000000
3890.771973 400998.000000
3891.703857 401144.000000
3892.635254 400858.000000
3893.566406 403365.000000
3894.497070 401492.000000
3895.427246 403394.000000
3896.357178 399297.000000
3897.286621 402346.000000
3898.215576 396015.000000
3899.144287 400248.000000
3900.072510 399520.000000
3901.000244 397062.000000
3901.927734 401015.000000
3902.854736 399081.000000
3903.781494 401876.000000
3904.707520 399063.000000
3905.633545 397690.000000
3906.558838 397333.000000
3907.483887 398223.000000
3908.408447 400380.000000
3909.332764 395289.000000
3910.256592 392727.000000
3911.180176 395822.000000
3912.103027 396385.000000
3913.025879 396481.000000
3913.947998 397661.000000
3914.869873 396865.000000
3915.791260 395421.000000
3916.712402 395054.000000
3917.633057 394405.000000
3918.553223 390884.000000
3919.473145 393857.000000
3920.392578 390895.000000
3921.311523 393483.000000
3922.230225 394058.000000
3923.148438 389817.000000
3924.066406 392275.000000
3924.983887 393974.000000
3925.900879 392673.000000
3926.817627 392951.000000
3927.733887 392124.000000
3928.649658 390010.000000
3929.565186 392476.000000
3930.480225 391497.000000
3931.395020 391101.000000
3932.309326 385912.000000
3933.223145 390688.000000
3934.136475 394118.000000
3935.049561 390896.000000
3935.962402 393729.000000
3936.874756 391914.000000
3937.786621 393114.000000
3938.697998 392203.000000
3939.609131 386847.000000
3940.519775 392335.000000
3941.430176 388803.000000
3942.340088 393011.000000
3943.249512 391265.000000
3944.158691 390515.000000
3945.067383 389056.000000
3945.975830 387410.000000
3946.883789 385883.000000
3947.791260 389702.000000
3948.698486 390862.000000
3949.605225 389537.000000
3950.511475 389225.000000
3951.417480 389276.000000
3952.322998 387913.000000
3953.228271 389107.000000
3954.133057 385072.000000
3955.037354 383827.000000
3955.941406 388595.000000
3956.844971 388761.000000
3957.748047 382022.000000
3958.650879 386223.000000
3959.553223 385371.000000
3960.455322 382478.000000
3961.356934 385718.000000
3962.258057 387859.000000
3963.158936 381208.000000
3964.059326 381681.000000
3964.959473 389245.000000
3965.859131 381830.000000
3966.758301 385195.000000
3967.657227 385312.000000
3968.555664 383216.000000
3969.453613 384302.000000
3970.351318 383271.000000
3971.248535 383506.000000
3972.145508 384865.000000
3973.041992 383140.000000
3973.937988 384086.000000
3974.833740 384711.000000
3975.729004 381611.000000
3976.624023 381730.000000
3977.518555 383053.000000
3978.412598 380556.000000
3979.306396 380886.000000
3980.199707 383490.000000
3981.092529 383978.000000
3981.985107 384166.000000
3982.877441 384848.000000
3983.769043 382907.000000
3984.660400 380118.000000
3985.551514 378508.000000
3986.442139 380229.000000
3987.332275 383402.000000
3988.222168 379912.000000
3989.111572 382545.000000
3990.000488 381357.000000
3990.889160 381212.000000
3991.777344 382157.000000
3992.665283 381526.000000
3993.552734 378835.000000
3994.439697 378965.000000
3995.326416 376735.000000
3996.212646 378461.000000
3997.098633 380213.000000
3997.984131 378317.000000
3998.869141 380972.000000
3999.753906 378275.000000
4000.638184 379965.000000
4001.522217 376528.000000
4002.405762 377940.000000
4003.289062 379508.000000
4004.171631 378079.000000
4005.054199 373496.000000
4005.936035 374927.000000
4006.817627 378995.000000
4007.698975 377691.000000
4008.579590 378167.000000
4009.460205 372831.000000
4010.340088 377873.000000
4011.219727 376410.000000
4012.099121 376916.000000
4012.977783 374380.000000
4013.856445 376338.000000
4014.734375 370145.000000
4015.612061 373736.000000
4016.489502 375594.000000
4017.366455 372203.000000
4018.242920 373992.000000
4019.118896 377626.000000
4019.994873 373188.000000
4020.870117 375253.000000
4021.745117 371213.000000
4022.619629 375565.000000
4023.493896 376725.000000
4024.367676 375062.000000
4025.240967 372214.000000
4026.114014 376089.000000
4026.986816 373712.000000
4027.858887 371853.000000
4028.730713 371350.000000
4029.602295 372494.000000
4030.473389 368371.000000
4031.343994 372750.000000
4032.214355 374364.000000
4033.084229 372489.000000
4033.953857 371464.000000
4034.822998 369700.000000
4035.691650 374667.000000
4036.560059 373006.000000
4037.427979 369292.000000
