300.00000	36.22517
302.00000	50.34737
304.00000	34.24140
306.00000	27.55790
308.00000	57.84312
310.00000	32.83393
312.00000	33.66761
314.00000	40.92979
316.00000	32.98328
318.00000	48.38445
320.00000	41.97710
322.00000	32.38713
324.00000	32.65772
326.00000	33.90853
328.00000	43.35521
330.00000	45.97302
332.00000	37.76262
334.00000	33.96228
336.00000	45.32982
338.00000	43.40915
340.00000	45.64650
342.00000	58.83509
344.00000	66.60571
346.00000	81.20207
348.00000	110.02097
350.00000	136.81891
352.00000	148.21979
354.00000	153.16679
356.00000	139.91533
358.00000	124.14309
360.00000	115.46339
362.00000	101.18593
364.00000	82.95013
366.00000	63.36045
368.00000	50.57535
370.00000	48.92217
372.00000	48.67613
374.00000	50.07285
376.00000	42.74105
378.00000	34.23817
380.00000	45.45166
382.00000	40.34822
384.00000	44.86687
386.00000	61.58998
388.00000	62.28561
390.00000	68.30137
392.00000	82.40840
394.00000	90.67802
396.00000	87.23920
398.00000	82.13982
400.00000	67.65505
402.00000	56.82176
404.00000	55.28952
406.00000	50.94233
408.00000	45.82111
410.00000	44.68224
412.00000	54.74791
414.00000	66.85955
416.00000	53.69889
418.00000	43.08474
420.00000	33.93370
422.00000	27.53694
424.00000	44.62238
426.00000	55.35083
428.00000	49.40012
430.00000	41.79625
432.00000	45.94849
434.00000	53.88490
436.00000	83.77640
438.00000	114.79726
440.00000	130.21246
442.00000	160.35722
444.00000	205.42393
446.00000	274.33768
448.00000	366.50189
450.00000	475.12604
452.00000	626.60162
454.00000	854.95453
456.00000	1174.75000
458.00000	1552.33044
460.00000	1898.43054
462.00000	2121.72803
464.00000	2163.30176
466.00000	2015.99390
468.00000	1729.35693
470.00000	1392.22449
472.00000	1074.48596
474.00000	822.66156
476.00000	648.88867
478.00000	523.83826
480.00000	435.30215
482.00000	376.18262
484.00000	329.39526
486.00000	278.48367
488.00000	247.12811
490.00000	232.10242
492.00000	223.72337
494.00000	213.90161
496.00000	181.18242
498.00000	157.84441
500.00000	149.64119
502.00000	140.69771
504.00000	135.64404
506.00000	126.97222
508.00000	133.27882
510.00000	142.54419
512.00000	118.46110
514.00000	106.54813
516.00000	99.24702
518.00000	92.26149
520.00000	92.51468
522.00000	82.19168
524.00000	76.70708
526.00000	79.00777
528.00000	80.27634
530.00000	76.95998
532.00000	67.69130
534.00000	59.64558
536.00000	52.29761
538.00000	46.52449
540.00000	62.68853
542.00000	69.35944
544.00000	65.49590
546.00000	67.14391
548.00000	62.56137
550.00000	57.19166
552.00000	50.22577
554.00000	44.31963
556.00000	46.65298
558.00000	48.17540
560.00000	48.77341
562.00000	53.22011
564.00000	59.27241
566.00000	56.65018
568.00000	57.10382
570.00000	63.89246
572.00000	66.70927
574.00000	56.83209
576.00000	46.25677
578.00000	45.35916
580.00000	55.65651
582.00000	65.67610
584.00000	57.01296
586.00000	48.72120
588.00000	43.49406
590.00000	39.97128
592.00000	50.74664
594.00000	46.38228
596.00000	38.98661
598.00000	39.82927
600.00000	36.43021
602.00000	36.73254
604.00000	34.72032
606.00000	36.48007
608.00000	44.18918
610.00000	36.02465
612.00000	36.43991
614.00000	41.60350
616.00000	41.27337
618.00000	43.23360
620.00000	35.60679
622.00000	25.29231
624.00000	21.22195
626.00000	21.87584
628.00000	24.08151
630.00000	39.23210
632.00000	50.09261
634.00000	41.75452
636.00000	35.84193
638.00000	41.44244
640.00000	50.86883
642.00000	58.65263
644.00000	60.13347
646.00000	38.27258
648.00000	33.07689
650.00000	48.56748
652.00000	58.02399
654.00000	60.88330
656.00000	45.40885
658.00000	29.66333
660.00000	30.01201
662.00000	37.78878
664.00000	50.10480
666.00000	48.16706
668.00000	37.37354
670.00000	38.58637
672.00000	41.90443
674.00000	31.76339
676.00000	22.28169
678.00000	24.55231
680.00000	26.66708
682.00000	48.48146
684.00000	43.03077
686.00000	23.82910
688.00000	48.35524
690.00000	48.83298
692.00000	60.72001
694.00000	64.37229
696.00000	33.96519
698.00000	39.83163
700.00000	49.90758
702.00000	63.62363
704.00000	69.49488
706.00000	38.43610
708.00000	36.78714
710.00000	53.15132
712.00000	60.39344
714.00000	55.03747
716.00000	39.97216
718.00000	34.18139
720.00000	48.42834
722.00000	68.52257
724.00000	67.94816
726.00000	55.46811
728.00000	45.56448
730.00000	47.04153
732.00000	54.70755
734.00000	48.65408
736.00000	38.83061
738.00000	33.91892
740.00000	30.85071
742.00000	26.72667
744.00000	29.86981
746.00000	27.08755
748.00000	27.63254
750.00000	52.24963
752.00000	48.13268
754.00000	29.89874
756.00000	20.20719
758.00000	20.13357
760.00000	29.78474
762.00000	41.42395
764.00000	40.23531
766.00000	27.67909
768.00000	24.63137
770.00000	27.95325
772.00000	24.98023
774.00000	22.39419
776.00000	31.24356
778.00000	31.09144
780.00000	34.22930
782.00000	31.12905
784.00000	15.63513
786.00000	17.51937
788.00000	29.13849
790.00000	42.38821
792.00000	47.79510
794.00000	40.35301
796.00000	41.37518
798.00000	47.26070
800.00000	50.36385
802.00000	51.43853
804.00000	53.29613
806.00000	52.98617
808.00000	53.10295
810.00000	53.93311
812.00000	51.22441
814.00000	52.87918
816.00000	54.86992
818.00000	55.60318
820.00000	55.20723
822.00000	44.08448
824.00000	38.91051
826.00000	40.43386
828.00000	41.42651
830.00000	45.79905
832.00000	43.47048
834.00000	39.99535
836.00000	40.99584
838.00000	42.01997
840.00000	41.48086
842.00000	35.92548
844.00000	31.05998
846.00000	30.21698
848.00000	23.30954
850.00000	22.19707
852.00000	23.96760
854.00000	28.65841
856.00000	43.28883
858.00000	42.25856
860.00000	44.53957
862.00000	57.81914
864.00000	59.81541
866.00000	42.07360
868.00000	36.02986
870.00000	45.55016
872.00000	51.96251
874.00000	48.57391
876.00000	41.27456
878.00000	31.73116
880.00000	27.13115
882.00000	36.53735
884.00000	50.01949
886.00000	58.00747
888.00000	51.33113
890.00000	34.92591
892.00000	31.01401
894.00000	30.37802
896.00000	27.85789
898.00000	31.13032
900.00000	43.57573
902.00000	41.93468
904.00000	28.59624
906.00000	17.55300
908.00000	17.90659
910.00000	29.18001
912.00000	38.99300
914.00000	39.25521
916.00000	35.45668
918.00000	39.16774
920.00000	43.52381
922.00000	50.83422
924.00000	50.32573
926.00000	35.39872
928.00000	43.98145
930.00000	43.44075
932.00000	33.43634
934.00000	38.03056
936.00000	44.32081
938.00000	43.93764
940.00000	43.52563
942.00000	42.07967
944.00000	31.77980
946.00000	31.40014
948.00000	30.53310
950.00000	34.39779
952.00000	50.39602
954.00000	50.10113
956.00000	54.55025
958.00000	58.84520
960.00000	58.15360
962.00000	67.63641
964.00000	52.46996
966.00000	50.17903
968.00000	65.03245
970.00000	54.84551
972.00000	42.06218
974.00000	42.72092
976.00000	42.64648
978.00000	29.59248
980.00000	21.78457
982.00000	24.99913
984.00000	35.53227
986.00000	43.82985
988.00000	40.63919
990.00000	28.30738
992.00000	25.06968
994.00000	21.50327
996.00000	14.37173
998.00000	44.17603
1000.00000	59.55199
1002.00000	46.62673
1004.00000	35.49803
1006.00000	40.99979
1008.00000	31.35047
1010.00000	33.45638
1012.00000	41.82630
1014.00000	29.24699
1016.00000	42.86592
1018.00000	44.01023
1020.00000	31.74812
1022.00000	30.61522
1024.00000	27.56670
1026.00000	23.35023
1028.00000	32.84041
1030.00000	52.63366
1032.00000	61.04419
1034.00000	59.30118
1036.00000	51.08168
1038.00000	52.92343
1040.00000	61.94475
1042.00000	40.30873
1044.00000	31.53176
1046.00000	29.58787
1048.00000	22.52686
1050.00000	33.20216
1052.00000	37.66854
1054.00000	42.15843
1056.00000	48.50898
1058.00000	50.02850
1060.00000	60.54602
1062.00000	61.04137
1064.00000	56.37973
1066.00000	62.88933
1068.00000	68.26099
1070.00000	42.54859
1072.00000	24.34988
1074.00000	38.12794
1076.00000	54.10045
1078.00000	56.98207
1080.00000	62.71074
1082.00000	71.31413
1084.00000	64.81050
1086.00000	43.43419
1088.00000	46.58205
1090.00000	49.42893
1092.00000	36.70961
1094.00000	38.49216
1096.00000	25.80526
1098.00000	34.00190
1100.00000	52.25919
1102.00000	35.59381
1104.00000	18.71158
1106.00000	20.33481
1108.00000	28.69170
1110.00000	25.08081
1112.00000	14.84740
1114.00000	33.64351
1116.00000	58.04678
1118.00000	55.01337
1120.00000	38.36478
1122.00000	54.91417
1124.00000	59.41876
1126.00000	55.53937
1128.00000	69.94415
1130.00000	66.79853
1132.00000	58.48270
1134.00000	54.83774
1136.00000	53.34039
1138.00000	49.53705
1140.00000	43.91230
1142.00000	43.45354
1144.00000	41.78561
1146.00000	34.44567
1148.00000	43.16645
1150.00000	61.67712
1152.00000	64.91139
1154.00000	58.63424
1156.00000	80.63863
1158.00000	102.58891
1160.00000	105.38063
1162.00000	96.48861
1164.00000	89.12611
1166.00000	76.99397
1168.00000	69.50552
1170.00000	59.80065
1172.00000	46.17094
1174.00000	53.12196
1176.00000	63.68091
1178.00000	69.28014
1180.00000	66.69540
1182.00000	55.51159
1184.00000	55.34777
1186.00000	53.19991
1188.00000	45.81612
1190.00000	49.67046
1192.00000	68.99294
1194.00000	73.74032
1196.00000	57.67634
1198.00000	47.42650
1200.00000	60.14160
1202.00000	47.23980
1204.00000	39.13012
1206.00000	47.06418
1208.00000	42.44178
1210.00000	43.45182
1212.00000	34.53245
1214.00000	32.62992
1216.00000	51.42132
1218.00000	55.99653
1220.00000	55.00743
1222.00000	56.22737
1224.00000	63.10928
1226.00000	68.98910
1228.00000	48.91171
1230.00000	64.09367
1232.00000	86.44521
1234.00000	57.24017
1236.00000	45.59758
1238.00000	59.87209
1240.00000	74.49724
1242.00000	69.19820
1244.00000	54.31493
1246.00000	69.13613
1248.00000	91.81282
1250.00000	89.67828
1252.00000	68.89835
1254.00000	66.06393
1256.00000	66.04369
1258.00000	56.98273
1260.00000	44.09020
1262.00000	38.23842
1264.00000	56.93057
1266.00000	66.58999
1268.00000	59.68920
1270.00000	64.67889
1272.00000	55.18359
1274.00000	50.66131
1276.00000	61.79938
1278.00000	66.65729
1280.00000	49.69682
1282.00000	67.69099
1284.00000	76.55425
1286.00000	50.79962
1288.00000	57.00743
1290.00000	76.65015
1292.00000	72.73863
1294.00000	65.18494
1296.00000	79.21328
1298.00000	59.97335
1300.00000	57.55956
1302.00000	71.74879
1304.00000	80.27556
1306.00000	98.91167
1308.00000	82.20366
1310.00000	66.91460
1312.00000	77.57426
1314.00000	77.82446
1316.00000	57.34603
1318.00000	48.85456
1320.00000	47.59404
1322.00000	39.54921
1324.00000	50.54737
1326.00000	46.29686
1328.00000	55.96915
1330.00000	79.24940
1332.00000	59.32716
1334.00000	46.29329
1336.00000	38.08712
1338.00000	39.94268
1340.00000	58.06377
1342.00000	49.58068
1344.00000	60.98070
1346.00000	66.01578
1348.00000	38.99913
1350.00000	36.37667
1352.00000	48.25932
1354.00000	63.48963
1356.00000	64.10369
1358.00000	41.59156
1360.00000	35.67195
1362.00000	41.39988
1364.00000	48.62076
1366.00000	55.50071
1368.00000	56.12155
1370.00000	43.72430
1372.00000	19.45082
1374.00000	21.30880
1376.00000	70.55794
1378.00000	59.36648
1380.00000	24.86768
1382.00000	35.54934
1384.00000	73.38222
1386.00000	56.07701
1388.00000	53.19952
1390.00000	61.93832
1392.00000	58.77464
1394.00000	68.58334
1396.00000	29.12417
1398.00000	38.45727
1400.00000	89.06236
1402.00000	72.78732
1404.00000	81.47034
1406.00000	94.68038
1408.00000	84.68075
1410.00000	62.47348
1412.00000	52.97939
1414.00000	81.59145
1416.00000	81.97057
1418.00000	55.20411
1420.00000	80.74380
1422.00000	87.27902
1424.00000	82.82918
1426.00000	83.01109
1428.00000	87.76719
1430.00000	109.31359
1432.00000	97.16160
1434.00000	75.04722
1436.00000	69.53436
1438.00000	56.35965
1440.00000	81.69201
1442.00000	107.35042
1444.00000	101.66836
1446.00000	87.68197
1448.00000	84.89059
1450.00000	81.72617
1452.00000	80.51853
1454.00000	87.46834
1456.00000	86.69516
1458.00000	66.22555
1460.00000	52.95392
1462.00000	54.20472
1464.00000	51.32129
1466.00000	65.11981
1468.00000	53.31179
1470.00000	36.33409
1472.00000	53.37130
1474.00000	56.91529
1476.00000	71.58470
1478.00000	79.87823
1480.00000	68.76039
1482.00000	69.92601
1484.00000	72.21793
1486.00000	68.70050
1488.00000	61.38237
1490.00000	52.92470
1492.00000	42.66393
1494.00000	37.48454
1496.00000	47.81274
1498.00000	67.62719
1500.00000	71.89803
1502.00000	61.42430
1504.00000	49.99298
1506.00000	44.39482
1508.00000	38.34916
1510.00000	28.62475
1512.00000	44.46638
1514.00000	70.37211
1516.00000	75.97309
1518.00000	79.54146
1520.00000	69.96864
1522.00000	52.51954
1524.00000	47.19835
1526.00000	61.14150
1528.00000	69.50660
1530.00000	61.02499
1532.00000	76.34953
1534.00000	116.52274
1536.00000	69.50803
1538.00000	54.15862
1540.00000	69.24860
1542.00000	58.35066
1544.00000	62.32871
1546.00000	48.40991
1548.00000	33.51500
1550.00000	37.33655
1552.00000	51.04263
1554.00000	74.94292
1556.00000	84.23763
1558.00000	74.63051
1560.00000	65.67436
1562.00000	67.94965
1564.00000	61.40326
1566.00000	41.36753
1568.00000	41.87117
1570.00000	81.21014
1572.00000	72.21227
1574.00000	79.28001
1576.00000	88.34222
1578.00000	38.07524
1580.00000	27.25278
1582.00000	59.75367
1584.00000	84.40676
1586.00000	76.63332
1588.00000	75.01271
1590.00000	117.53493
1592.00000	110.02918
1594.00000	73.69917
1596.00000	100.51937
1598.00000	58.25945
1600.00000	59.78516
1602.00000	106.17294
1604.00000	96.73428
1606.00000	54.96852
1608.00000	74.02670
1610.00000	103.83968
1612.00000	82.53058
1614.00000	60.36554
1616.00000	106.98731
1618.00000	119.55304
1620.00000	77.81673
1622.00000	68.60901
1624.00000	94.74334
1626.00000	61.26483
1628.00000	33.95120
1630.00000	62.13194
1632.00000	52.27926
1634.00000	56.61989
1636.00000	62.72899
1638.00000	76.40002
1640.00000	115.44498
1642.00000	102.73076
1644.00000	80.87917
1646.00000	55.38306
1648.00000	35.00877
1650.00000	79.21080
1652.00000	70.71181
1654.00000	70.07487
1656.00000	91.42263
1658.00000	43.70612
1660.00000	49.77855
1662.00000	85.38785
1664.00000	100.74480
1666.00000	104.08710
1668.00000	116.23885
1670.00000	90.26045
1672.00000	93.58034
1674.00000	129.58496
1676.00000	89.64372
1678.00000	104.01467
1680.00000	106.99055
1682.00000	79.63625
1684.00000	86.52324
1686.00000	64.55669
1688.00000	104.48959
1690.00000	151.83296
1692.00000	123.78730
1694.00000	99.71921
1696.00000	78.54433
1698.00000	56.89145
1700.00000	53.89478
1702.00000	81.38142
1704.00000	100.81131
1706.00000	85.74314
1708.00000	59.70778
1710.00000	65.03770
1712.00000	96.08318
1714.00000	83.67390
1716.00000	77.94672
1718.00000	95.40352
1720.00000	65.41508
1722.00000	86.00889
1724.00000	103.89098
1726.00000	71.52435
1728.00000	34.81987
1730.00000	43.18288
1732.00000	78.49046
1734.00000	101.85609
1736.00000	104.30836
1738.00000	114.84529
1740.00000	137.18097
1742.00000	138.44690
1744.00000	118.89166
1746.00000	109.46718
1748.00000	94.43195
1750.00000	104.78352
1752.00000	101.22784
1754.00000	73.09298
1756.00000	118.24200
1758.00000	85.66348
1760.00000	63.74332
1762.00000	132.34924
1764.00000	154.92427
1766.00000	101.56138
1768.00000	129.75790
1770.00000	176.38713
1772.00000	109.63675
1774.00000	134.83797
1776.00000	129.30000
1778.00000	73.87315
1780.00000	66.95718
1782.00000	118.24719
1784.00000	121.59020
1786.00000	133.98216
1788.00000	175.55496
1790.00000	159.04169
1792.00000	96.93897
1794.00000	120.80559
1796.00000	138.26633
1798.00000	64.21532
1800.00000	91.11591
1802.00000	109.69273
1804.00000	102.44051
1806.00000	115.29797
1808.00000	133.04257
1810.00000	117.69693
1812.00000	130.78691
1814.00000	157.64743
1816.00000	142.11746
1818.00000	138.88741
1820.00000	122.47523
1822.00000	102.73127
1824.00000	96.36633
1826.00000	87.88531
1828.00000	107.04829
1830.00000	105.42645
1832.00000	116.29108
1834.00000	181.39330
1836.00000	136.58693
1838.00000	150.93930
1840.00000	167.53638
1842.00000	101.09679
1844.00000	144.44835
1846.00000	97.10882
1848.00000	62.85690
1850.00000	105.73342
1852.00000	78.66440
1854.00000	94.52596
1856.00000	111.74047
1858.00000	109.52133
1860.00000	126.47886
1862.00000	139.40350
1864.00000	113.89154
1866.00000	108.44051
1868.00000	144.02110
1870.00000	131.35820
1872.00000	74.52569
1874.00000	106.23102
1876.00000	140.31520
1878.00000	67.11467
1880.00000	187.89508
1882.00000	172.03751
1884.00000	124.73761
1886.00000	216.30273
1888.00000	107.59388
1890.00000	48.00323
1892.00000	87.22792
1894.00000	96.47584
1896.00000	45.41859
1898.00000	80.96075
1900.00000	130.12608
1902.00000	143.65265
1904.00000	167.18259
1906.00000	200.03256
1908.00000	135.94688
1910.00000	125.96145
1912.00000	178.14268
1914.00000	71.80811
1916.00000	105.59809
1918.00000	107.41531
1920.00000	84.84228
1922.00000	193.73608
1924.00000	114.26248
1926.00000	108.16692
1928.00000	182.33710
1930.00000	163.84869
1932.00000	123.74271
1934.00000	133.49818
1936.00000	91.21628
1938.00000	54.74936
1940.00000	161.81110
1942.00000	138.44756
1944.00000	140.32207
1946.00000	185.78171
1948.00000	156.45238
1950.00000	142.28709
1952.00000	130.14882
1954.00000	113.63100
1956.00000	89.00870
1958.00000	52.33611
1960.00000	65.57241
1962.00000	98.04163
1964.00000	127.63196
1966.00000	158.84306
1968.00000	157.60043
1970.00000	153.44460
1972.00000	168.45200
1974.00000	168.07103
1976.00000	107.10490
1978.00000	75.66929
1980.00000	93.19595
1982.00000	102.26972
1984.00000	67.37160
1986.00000	59.62548
1988.00000	88.91471
1990.00000	117.67603
1992.00000	124.22275
1994.00000	129.85126
1996.00000	114.89227
1998.00000	56.50756
2000.00000	84.01329
2002.00000	90.04797
2004.00000	95.22648
2006.00000	111.78059
2008.00000	133.55101
2010.00000	136.92776
2012.00000	125.35447
2014.00000	121.88709
2016.00000	127.51408
2018.00000	130.51225
2020.00000	134.35323
2022.00000	126.95872
2024.00000	121.31802
2026.00000	131.94870
2028.00000	144.45241
2030.00000	135.80466
2032.00000	128.33832
2034.00000	135.80157
2036.00000	140.44029
2038.00000	134.20903
2040.00000	144.40004
2042.00000	169.46559
2044.00000	183.14835
2046.00000	177.56976
2048.00000	161.55090
2050.00000	148.41338
2052.00000	143.42657
2054.00000	142.04239
2056.00000	144.59738
2058.00000	159.45793
2060.00000	173.38028
2062.00000	160.43283
2064.00000	131.04276
2066.00000	140.12175
2068.00000	164.28406
2070.00000	161.27795
2072.00000	163.35234
2074.00000	159.47195
2076.00000	133.23532
2078.00000	118.11217
2080.00000	156.62015
2082.00000	166.73608
2084.00000	143.41301
2086.00000	129.92938
2088.00000	132.35336
2090.00000	95.20979
2092.00000	83.30417
2094.00000	119.99542
2096.00000	143.07813
2098.00000	103.01507
2100.00000	118.32668
2102.00000	155.32416
2104.00000	143.94826
2106.00000	114.83326
2108.00000	124.84025
2110.00000	141.90875
2112.00000	130.64758
2114.00000	108.28149
2116.00000	116.76785
2118.00000	128.16667
2120.00000	114.40165
2122.00000	94.59659
2124.00000	109.50012
2126.00000	115.05859
2128.00000	101.52450
2130.00000	82.74947
2132.00000	73.82382
2134.00000	100.17209
2136.00000	135.10953
2138.00000	144.53450
2140.00000	129.67349
2142.00000	124.46324
2144.00000	115.16251
2146.00000	94.49181
2148.00000	88.00384
2150.00000	121.08856
2152.00000	138.50018
2154.00000	137.32942
2156.00000	136.77538
2158.00000	142.21556
2160.00000	157.29538
2162.00000	160.35272
2164.00000	141.87802
2166.00000	120.73866
2168.00000	126.06421
2170.00000	150.49020
2172.00000	154.94350
2174.00000	132.11758
2176.00000	126.89491
2178.00000	145.59895
2180.00000	151.54770
2182.00000	145.14505
2184.00000	153.39885
2186.00000	138.65565
2188.00000	96.27058
2190.00000	79.95780
2192.00000	105.55217
2194.00000	97.39697
2196.00000	113.11747
2198.00000	140.58635
2200.00000	138.31282
2202.00000	120.57220
2204.00000	115.45634
2206.00000	108.17390
2208.00000	108.55548
2210.00000	133.58450
2212.00000	126.09026
2214.00000	92.32214
2216.00000	82.47375
2218.00000	106.48310
2220.00000	104.20052
2222.00000	93.79259
2224.00000	91.17887
2226.00000	91.56274
2228.00000	94.98884
2230.00000	126.61205
2232.00000	127.25449
2234.00000	89.28795
2236.00000	81.78452
2238.00000	126.78040
2240.00000	138.07199
2242.00000	127.48509
2244.00000	138.24721
2246.00000	121.79858
2248.00000	83.19038
2250.00000	80.34744
2252.00000	114.36817
2254.00000	121.21766
2256.00000	116.63338
2258.00000	118.28204
2260.00000	126.41497
2262.00000	133.66327
2264.00000	137.09175
2266.00000	123.25909
2268.00000	108.88158
2270.00000	114.05319
2272.00000	124.35924
2274.00000	118.53255
2276.00000	119.90923
2278.00000	137.07181
2280.00000	139.97646
2282.00000	122.29679
2284.00000	114.66927
2286.00000	115.68392
2288.00000	109.14384
2290.00000	118.66152
2292.00000	127.53410
2294.00000	112.65300
2296.00000	95.41628
2298.00000	116.02208
2300.00000	99.38026
2302.00000	80.55315
2304.00000	99.47292
2306.00000	110.69613
2308.00000	60.83015
2310.00000	40.13343
2312.00000	66.31910
2314.00000	73.76381
2316.00000	56.27111
2318.00000	58.39664
2320.00000	71.61605
2322.00000	73.03155
2324.00000	75.41083
2326.00000	78.61485
2328.00000	66.16428
2330.00000	60.78031
2332.00000	93.20041
2334.00000	107.07009
2336.00000	87.64628
2338.00000	65.16017
2340.00000	63.52749
2342.00000	65.10118
2344.00000	72.56388
2346.00000	87.85291
2348.00000	94.22388
2350.00000	78.60462
2352.00000	85.77203
2354.00000	93.41684
2356.00000	91.22328
2358.00000	97.25211
2360.00000	89.89870
2362.00000	84.70589
2364.00000	80.13796
2366.00000	63.10561
2368.00000	47.84238
2370.00000	63.38020
2372.00000	92.98601
2374.00000	100.05991
2376.00000	83.02415
2378.00000	96.11534
2380.00000	116.61707
2382.00000	91.09732
2384.00000	45.67518
2386.00000	104.94677
2388.00000	133.30193
2390.00000	103.22220
2392.00000	98.85452
2394.00000	116.23589
2396.00000	62.11086
2398.00000	47.30762
2400.00000	104.95805
2402.00000	98.66426
2404.00000	99.92046
2406.00000	131.98070
2408.00000	142.32539
2410.00000	114.41121
2412.00000	137.83311
2414.00000	121.96426
2416.00000	100.78075
2418.00000	137.50743
2420.00000	147.89537
2422.00000	97.35454
2424.00000	84.51878
2426.00000	106.21927
2428.00000	62.53485
2430.00000	80.52760
2432.00000	142.32114
2434.00000	154.86676
2436.00000	114.77811
2438.00000	146.44785
2440.00000	168.78061
2442.00000	144.83675
2444.00000	122.49379
2446.00000	140.25272
2448.00000	158.24727
2450.00000	136.80099
2452.00000	100.15067
2454.00000	100.44623
2456.00000	106.54175
2458.00000	85.27176
2460.00000	85.45499
2462.00000	134.07492
2464.00000	127.81981
2466.00000	102.37995
2468.00000	108.47094
2470.00000	135.89653
2472.00000	129.91620
2474.00000	91.14533
2476.00000	94.58971
2478.00000	117.19083
2480.00000	74.51237
2482.00000	54.42899
2484.00000	103.72408
2486.00000	128.15688
2488.00000	76.94802
2490.00000	94.72674
2492.00000	126.68171
2494.00000	97.74342
2496.00000	55.19927
2498.00000	102.40765
2500.00000	129.42772
2502.00000	113.83866
2504.00000	111.07637
2506.00000	128.29942
2508.00000	65.64742
2510.00000	25.41240
2512.00000	70.13665
2514.00000	117.80553
2516.00000	60.73394
2518.00000	35.99885
2520.00000	96.74432
2522.00000	135.67853
2524.00000	66.45867
2526.00000	89.70598
2528.00000	135.00220
2530.00000	88.67606
2532.00000	8.45527
2534.00000	53.29159
2536.00000	127.56386
2538.00000	115.28387
2540.00000	67.74656
2542.00000	128.03935
2544.00000	113.11123
2546.00000	54.74984
2548.00000	83.95792
2550.00000	166.02986
2552.00000	104.70946
2554.00000	79.85110
2556.00000	150.13942
2558.00000	146.51062
2560.00000	53.67627
2562.00000	102.91308
2564.00000	151.81403
2566.00000	46.51612
2568.00000	48.17182
2570.00000	180.30180
2572.00000	162.80049
2574.00000	26.25383
2576.00000	102.58147
2578.00000	176.22534
2580.00000	120.96556
2582.00000	79.49782
2584.00000	164.79611
2586.00000	154.48320
2588.00000	101.10393
2590.00000	109.66317
2592.00000	156.19264
2594.00000	127.61772
2596.00000	97.56557
2598.00000	91.39938
2600.00000	96.23224
2602.00000	104.32090
2604.00000	104.51816
2606.00000	133.29001
2608.00000	128.70493
2610.00000	68.56934
2612.00000	114.21159
2614.00000	108.11387
2616.00000	45.42808
2618.00000	65.59879
2620.00000	171.97733
2622.00000	87.82107
2624.00000	48.05235
2626.00000	145.97525
2628.00000	137.78181
2630.00000	75.75620
2632.00000	105.81517
2634.00000	144.05026
2636.00000	63.93793
2638.00000	15.93729
2640.00000	96.34307
2642.00000	125.61525
2644.00000	58.41357
2646.00000	112.61681
2648.00000	130.41351
2650.00000	100.41283
2652.00000	133.00172
2654.00000	225.18312
2656.00000	157.40727
2658.00000	100.11203
2660.00000	153.19861
2662.00000	181.74271
2664.00000	62.37622
2666.00000	93.13111
2668.00000	172.03273
2670.00000	114.55115
2672.00000	58.81401
2674.00000	175.81943
2676.00000	138.51895
2678.00000	26.65270
2680.00000	176.22574
2682.00000	205.49615
2684.00000	95.35838
2686.00000	109.64468
2688.00000	238.88184
2690.00000	99.25153
2692.00000	95.53001
2694.00000	215.04573
2696.00000	203.48250
2698.00000	84.94188
2700.00000	173.14534
2702.00000	186.23547
2704.00000	80.61703
2706.00000	126.19939
2708.00000	209.91882
2710.00000	105.70169
2712.00000	33.28221
2714.00000	163.13895
2716.00000	167.30226
2718.00000	79.82925
2720.00000	121.45171
2722.00000	192.67996
2724.00000	55.09085
2726.00000	144.52734
2728.00000	248.54315
2730.00000	175.05444
2732.00000	107.07026
2734.00000	230.59491
2736.00000	136.06717
2738.00000	52.08936
2740.00000	223.04553
2742.00000	221.58528
2744.00000	113.12463
2746.00000	175.12215
2748.00000	267.13754
2750.00000	88.11927
2752.00000	137.38484
2754.00000	279.04593
2756.00000	249.81451
2758.00000	134.51303
2760.00000	233.04712
2762.00000	201.45967
2764.00000	158.27289
2766.00000	270.01620
2768.00000	257.31802
2770.00000	172.49278
2772.00000	238.96979
2774.00000	273.27765
2776.00000	71.41019
2778.00000	312.99802
2780.00000	400.26184
2782.00000	178.00951
2784.00000	150.20570
2786.00000	380.00290
2788.00000	244.57455
2790.00000	164.13902
2792.00000	387.86096
2794.00000	255.93776
2796.00000	171.38214
2798.00000	271.44000
2800.00000	301.73611
2802.00000	170.08330
2804.00000	331.72583
2806.00000	270.38589
2808.00000	84.87693
2810.00000	204.45740
2812.00000	304.34451
2814.00000	169.35692
2816.00000	191.51300
2818.00000	354.69208
2820.00000	129.32080
2822.00000	175.98775
2824.00000	339.36850
2826.00000	265.90646
2828.00000	100.77274
2830.00000	267.04559
2832.00000	198.27036
2834.00000	104.86826
2836.00000	298.20184
2838.00000	156.90852
2840.00000	92.53157
2842.00000	162.63242
2844.00000	146.88370
2846.00000	84.33489
2848.00000	301.46872
2850.00000	247.86407
2852.00000	76.03426
2854.00000	292.55338
2856.00000	195.14957
2858.00000	112.85006
2860.00000	208.01181
2862.00000	231.05412
2864.00000	90.32659
2866.00000	241.15198
2868.00000	276.01468
2870.00000	117.62704
2872.00000	292.74323
2874.00000	280.87296
2876.00000	122.61009
2878.00000	163.04747
2880.00000	353.24319
2882.00000	151.28790
2884.00000	212.06143
2886.00000	311.12198
2888.00000	123.95729
2890.00000	215.64990
2892.00000	286.94882
2894.00000	245.38757
2896.00000	223.60358
2898.00000	242.29723
2900.00000	116.23978
2902.00000	186.03864
2904.00000	234.66466
2906.00000	2.57841
2908.00000	150.55901
2910.00000	208.97461
2912.00000	122.11461
2914.00000	168.32477
2916.00000	277.71378
2918.00000	151.59570
2920.00000	100.77154
2922.00000	226.76140
2924.00000	217.47066
2926.00000	156.41190
2928.00000	84.69972
2930.00000	54.25615
2932.00000	109.90534
2934.00000	192.99030
2936.00000	195.01192
2938.00000	182.29720
2940.00000	207.62984
2942.00000	182.69635
2944.00000	138.48091
2946.00000	143.27171
2948.00000	194.09666
2950.00000	214.56956
2952.00000	170.85248
2954.00000	176.10419
2956.00000	222.70639
2958.00000	211.60406
2960.00000	178.59406
2962.00000	336.53888
2964.00000	325.52917
2966.00000	136.58472
2968.00000	297.37250
2970.00000	251.86551
2972.00000	141.41660
2974.00000	179.42886
2976.00000	253.91559
2978.00000	301.92551
2980.00000	316.51611
2982.00000	291.80585
2984.00000	220.45474
2986.00000	149.31847
2988.00000	234.09637
2990.00000	297.13483
2992.00000	188.91866
2994.00000	87.08475
2996.00000	188.31047
2998.00000	208.59760
3000.00000	160.11908
3002.00000	262.34329
3004.00000	250.03625
3006.00000	258.32053
3008.00000	326.87143
3010.00000	340.77078
3012.00000	239.58049
3014.00000	54.40259
3016.00000	102.06643
3018.00000	282.55841
3020.00000	169.86261
3022.00000	175.71863
3024.00000	228.76997
3026.00000	179.45393
3028.00000	71.06528
3030.00000	-1.95613
3032.00000	47.57061
3034.00000	119.34785
3036.00000	129.06171
3038.00000	171.69449
3040.00000	209.46843
3042.00000	121.92609
3044.00000	106.21600
3046.00000	339.26642
3048.00000	168.51091
3050.00000	171.12907
3052.00000	267.50507
3054.00000	12.66158
3056.00000	32.90515
3058.00000	51.55210
3060.00000	140.62056
3062.00000	272.32028
3064.00000	31.36822
3066.00000	101.04141
3068.00000	257.11279
3070.00000	206.22258
3072.00000	180.52542
3074.00000	260.63669
3076.00000	131.58966
3078.00000	63.68398
3080.00000	327.84491
3082.00000	294.56052
3084.00000	139.05185
3086.00000	192.63141
3088.00000	356.97025
3090.00000	241.96933
3092.00000	102.96657
3094.00000	101.38658
3096.00000	132.89449
3098.00000	107.16653
3100.00000	229.15451
3102.00000	143.37546
3104.00000	19.94383
3106.00000	238.70444
3108.00000	463.56012
3110.00000	222.79373
3112.00000	-58.00759
3114.00000	46.78429
3116.00000	193.35448
3118.00000	40.96896
3120.00000	113.78771
3122.00000	373.59018
3124.00000	296.12259
3126.00000	286.01904
3128.00000	257.79434
3130.00000	216.98875
3132.00000	178.52371
3134.00000	7.12985
3136.00000	270.78192
3138.00000	386.10611
3140.00000	139.35141
3142.00000	242.20197
3144.00000	146.96045
3146.00000	356.08636
3148.00000	541.27521
3150.00000	69.45042
3152.00000	113.38960
3154.00000	177.74841
3156.00000	119.41361
3158.00000	205.14716
3160.00000	256.18158
3162.00000	231.84668
3164.00000	369.36584
3166.00000	455.56601
3168.00000	115.11977
3170.00000	188.94670
3172.00000	221.81505
3174.00000	180.66116
3176.00000	354.78262
3178.00000	73.86048
3180.00000	92.44963
3182.00000	309.85373
3184.00000	300.75925
3186.00000	370.73111
3188.00000	246.60760
3190.00000	156.78610
3192.00000	278.22614
3194.00000	363.95752
3196.00000	291.48840
3198.00000	245.54243
3200.00000	396.99597
