369.024689 143.000000
371.295044 90.000000
373.564575 38.000000
375.833252 40.000000
378.101074 -4.000000
380.368073 -52.000000
382.634186 -101.000000
384.899475 -126.000000
387.163910 -3.000000
389.427490 77.000000
391.690247 99.000000
393.952118 -112.000000
396.213196 26.000000
398.473389 5.000000
400.732758 -15.000000
402.991272 0.000000
405.248932 -23.000000
407.505768 -10.000000
409.761749 13.000000
412.016876 36.000000
414.271179 -98.000000
416.524628 70.000000
418.777252 -114.000000
421.029022 -105.000000
423.279938 50.000000
425.530029 -60.000000
427.779297 -43.000000
430.027679 -24.000000
432.275269 -5.000000
434.522003 18.000000
436.767883 -22.000000
439.012939 -4.000000
441.257141 8.000000
443.500519 -6.000000
445.743042 -20.000000
447.984741 68.000000
450.225616 88.000000
452.465637 -36.000000
454.704803 28.000000
456.943176 -1.000000
459.180664 47.000000
461.417358 13.000000
463.653198 64.000000
465.888214 63.000000
468.122375 22.000000
470.355713 -18.000000
472.588226 1.000000
474.819916 -40.000000
477.050751 -82.000000
479.280762 -73.000000
481.509949 38.000000
483.738281 -1.000000
485.965790 -40.000000
488.192474 57.000000
490.418335 8.000000
492.643341 130.000000
494.867523 -45.000000
497.090881 5.000000
499.313416 -38.000000
501.535126 -59.000000
503.755981 44.000000
505.976044 2.000000
508.195251 122.000000
510.413635 17.000000
512.631226 21.000000
514.847961 25.000000
517.063843 20.000000
519.278931 83.000000
521.493164 55.000000
523.706604 15.000000
525.919189 -25.000000
528.130981 -77.000000
530.341919 -14.000000
532.552063 45.000000
534.761353 85.000000
536.969849 67.000000
539.177490 50.000000
541.384338 16.000000
543.590332 -160.000000
545.795532 -56.000000
547.999878 -95.000000
550.203430 -3.000000
552.406189 -103.000000
554.608093 17.000000
556.809143 -8.000000
559.009399 70.000000
561.208862 30.000000
563.407471 40.000000
565.605286 38.000000
567.802307 23.000000
569.998474 25.000000
572.193787 13.000000
574.388306 27.000000
576.582031 -28.000000
578.774963 78.000000
580.967041 -59.000000
583.158264 -35.000000
585.348694 71.000000
587.538330 -15.000000
589.727173 52.000000
591.915161 -17.000000
594.102356 -104.000000
596.288696 -100.000000
598.474304 -11.000000
600.658997 -46.000000
602.842957 -20.000000
605.026062 5.000000
607.208374 21.000000
609.389832 8.000000
611.570557 -30.000000
613.750427 -35.000000
615.929443 -28.000000
618.107666 -21.000000
620.285156 -40.000000
622.461731 -59.000000
624.637573 -59.000000
626.812561 -19.000000
628.986755 8.000000
631.160156 -76.000000
633.332703 -2.000000
635.504456 -3.000000
637.675415 -4.000000
639.845581 14.000000
642.014954 -51.000000
644.183472 -14.000000
646.351196 89.000000
648.518127 61.000000
650.684265 -120.000000
652.849548 4.000000
655.014038 -25.000000
657.177734 -13.000000
659.340637 -29.000000
661.502747 -70.000000
663.664001 35.000000
665.824524 54.000000
667.984192 -45.000000
670.143066 -2.000000
672.301147 -30.000000
674.458374 35.000000
676.614868 20.000000
678.770508 5.000000
680.925415 57.000000
683.079468 63.000000
685.232727 -30.000000
687.385193 38.000000
689.536865 86.000000
691.687744 -71.000000
693.837769 -87.000000
695.987061 45.000000
698.135498 -43.000000
700.283142 -51.000000
702.430054 -59.000000
704.576111 -47.000000
706.721375 -98.000000
708.865845 -57.000000
711.009521 -17.000000
713.152405 42.000000
715.294495 -58.000000
717.435791 48.000000
719.576294 47.000000
721.716003 -73.000000
723.854858 -59.000000
725.992981 -100.000000
728.130310 -111.000000
730.266846 -17.000000
732.402527 -33.000000
734.537476 30.000000
736.671631 16.000000
738.804993 -20.000000
740.937500 30.000000
743.069275 2.000000
745.200256 17.000000
747.330444 106.000000
749.459839 -4.000000
751.588440 -140.000000
753.716248 -98.000000
755.843262 -20.000000
757.969482 -1.000000
760.094910 100.000000
762.219543 58.000000
764.343384 125.000000
766.466492 94.000000
768.588745 64.000000
770.710266 -13.000000
772.830994 -49.000000
774.950867 -86.000000
777.070007 -73.000000
779.188354 -1.000000
781.305908 60.000000
783.422729 -19.000000
785.538696 162.000000
787.653870 -14.000000
789.768311 -53.000000
791.881958 -93.000000
793.994812 -83.000000
796.106873 -74.000000
798.218140 -38.000000
800.328613 -16.000000
802.438354 6.000000
804.547302 51.000000
806.655457 172.000000
808.762817 7.000000
810.869385 -5.000000
812.975159 100.000000
815.080200 47.000000
817.184448 105.000000
819.287903 80.000000
821.390564 55.000000
823.492493 -18.000000
825.593628 -92.000000
827.693970 -37.000000
829.793518 -14.000000
831.892273 8.000000
833.990295 68.000000
836.087524 128.000000
838.183960 56.000000
840.279663 -77.000000
842.374573 -75.000000
844.468689 113.000000
846.562012 94.000000
848.654602 79.000000
850.746338 -76.000000
852.837402 -18.000000
854.927612 16.000000
857.017090 51.000000
859.105774 -14.000000
861.193665 -5.000000
863.280823 -123.000000
865.367188 -3.000000
867.452759 -9.000000
869.537598 63.000000
871.621643 47.000000
873.704956 31.000000
875.787415 101.000000
877.869141 -101.000000
879.950134 25.000000
882.030334 56.000000
884.109741 -38.000000
886.188354 37.000000
888.266235 36.000000
890.343384 40.000000
892.419678 -5.000000
894.495239 33.000000
896.570068 19.000000
898.644104 -22.000000
900.717346 14.000000
902.789856 51.000000
904.861572 13.000000
906.932556 88.000000
909.002747 12.000000
911.072144 -11.000000
913.140808 -34.000000
915.208679 -35.000000
917.275818 -71.000000
919.342163 114.000000
921.407776 124.000000
923.472595 -42.000000
925.536682 23.000000
927.599976 10.000000
929.662537 -2.000000
931.724304 -33.000000
933.785278 -65.000000
935.845520 -24.000000
937.905029 97.000000
939.963745 117.000000
942.021667 137.000000
944.078918 82.000000
946.135315 88.000000
948.190979 95.000000
950.245911 8.000000
952.300049 -49.000000
954.353455 77.000000
956.406067 -47.000000
958.457947 -12.000000
960.509033 -31.000000
962.559387 2.000000
964.609009 85.000000
966.657837 79.000000
968.705933 74.000000
970.753235 64.000000
972.799805 35.000000
974.845581 59.000000
976.890625 3.000000
978.934937 33.000000
980.978455 -21.000000
983.021240 53.000000
985.063232 15.000000
987.104492 -23.000000
989.145020 26.000000
991.184753 -76.000000
993.223755 -4.000000
995.262024 0.000000
997.299500 71.000000
999.336243 78.000000
1001.372253 86.000000
1003.407471 60.000000
1005.441956 6.000000
1007.475647 -69.000000
1009.508606 -23.000000
1011.540833 49.000000
1013.572327 26.000000
1015.603027 8.000000
1017.632996 -9.000000
1019.662231 -74.000000
1021.690674 -41.000000
1023.718384 74.000000
1025.745361 7.000000
1027.771606 43.000000
1029.796997 80.000000
1031.821777 65.000000
1033.845703 12.000000
1035.868896 -40.000000
1037.891357 -29.000000
1039.913086 -18.000000
1041.934082 -55.000000
1043.954346 -26.000000
1045.973755 -52.000000
1047.992554 54.000000
1050.010498 21.000000
1052.027710 -40.000000
1054.044312 37.000000
1056.060059 207.000000
1058.075073 100.000000
1060.089233 -72.000000
1062.102783 -76.000000
1064.115601 -10.000000
1066.127563 103.000000
1068.138916 211.000000
1070.149414 159.000000
1072.159180 -33.000000
1074.168213 -18.000000
1076.176514 50.000000
1078.184082 118.000000
1080.190918 155.000000
1082.197021 84.000000
1084.202393 -29.000000
1086.207031 83.000000
1088.210815 1.000000
1090.213989 7.000000
1092.216309 13.000000
1094.218018 -30.000000
1096.218872 -89.000000
1098.218994 -71.000000
1100.218506 23.000000
1102.217163 73.000000
1104.215088 16.000000
1106.212280 93.000000
1108.208740 98.000000
1110.204468 21.000000
1112.199463 -40.000000
1114.193726 -42.000000
1116.187256 -45.000000
1118.180054 -46.000000
1120.172119 -29.000000
1122.163452 -12.000000
1124.153931 -40.000000
1126.143799 -75.000000
1128.132935 -26.000000
1130.121338 -85.000000
1132.108887 -31.000000
1134.095825 -13.000000
1136.082031 5.000000
1138.067383 17.000000
1140.052124 -6.000000
1142.036133 -29.000000
1144.019287 -20.000000
1146.001831 -16.000000
1147.983643 -66.000000
1149.964600 53.000000
1151.944946 -23.000000
1153.924561 48.000000
1155.903320 91.000000
1157.881470 71.000000
1159.858887 52.000000
1161.835449 74.000000
1163.811401 104.000000
1165.786621 53.000000
1167.761108 -3.000000
1169.734863 -32.000000
1171.707764 158.000000
1173.680054 -60.000000
1175.651611 -58.000000
1177.622437 -65.000000
1179.592529 -63.000000
1181.561890 -62.000000
1183.530518 62.000000
1185.498535 54.000000
1187.465698 -64.000000
1189.432129 -106.000000
1191.397827 2.000000
1193.362915 173.000000
1195.327148 158.000000
1197.290649 -17.000000
1199.253540 73.000000
1201.215698 40.000000
1203.177002 109.000000
1205.137695 6.000000
1207.097656 2.000000
1209.056885 204.000000
1211.015381 131.000000
1212.973145 116.000000
1214.930176 59.000000
1216.886475 -98.000000
1218.842041 -50.000000
1220.796875 -1.000000
1222.751099 105.000000
1224.704468 -47.000000
1226.657227 -44.000000
1228.609253 -41.000000
1230.560547 8.000000
1232.511108 58.000000
1234.460938 81.000000
1236.410034 83.000000
1238.358398 59.000000
1240.306030 -104.000000
1242.253052 -28.000000
1244.199219 65.000000
1246.144775 -23.000000
1248.089600 -154.000000
1250.033691 -123.000000
1251.977051 208.000000
1253.919678 153.000000
1255.861572 98.000000
1257.802856 135.000000
1259.743408 163.000000
1261.683105 -133.000000
1263.622192 78.000000
1265.560547 -35.000000
1267.498169 -89.000000
1269.435181 -144.000000
1271.371338 -151.000000
1273.306885 -103.000000
1275.241577 118.000000
1277.175659 70.000000
1279.109009 57.000000
1281.041626 -5.000000
1282.973633 -68.000000
1284.904785 -95.000000
1286.835327 75.000000
1288.765137 89.000000
1290.694214 -49.000000
1292.622559 16.000000
1294.550171 23.000000
1296.477173 -41.000000
1298.403442 -24.000000
1300.328979 -7.000000
1302.253784 6.000000
1304.177856 20.000000
1306.101196 98.000000
1308.023926 15.000000
1309.945923 30.000000
1311.867188 45.000000
1313.787720 0.000000
1315.707642 -46.000000
1317.626709 -35.000000
1319.545166 111.000000
1321.462891 -17.000000
1323.379883 -9.000000
1325.296265 -1.000000
1327.211792 51.000000
1329.126709 -48.000000
1331.040894 13.000000
1332.954468 24.000000
1334.867188 35.000000
1336.779297 25.000000
1338.690674 75.000000
1340.601318 126.000000
1342.511353 104.000000
1344.420532 61.000000
1346.329102 18.000000
1348.236938 15.000000
1350.144165 -54.000000
1352.050537 -58.000000
1353.956299 -63.000000
1355.861328 -146.000000
1357.765747 -123.000000
1359.669312 23.000000
1361.572266 21.000000
1363.474487 58.000000
1365.376099 41.000000
1367.276855 24.000000
1369.177002 8.000000
1371.076416 -121.000000
1372.975220 -104.000000
1374.873169 11.000000
1376.770508 -47.000000
1378.667114 25.000000
1380.563110 71.000000
1382.458374 70.000000
1384.352905 69.000000
1386.246704 -11.000000
1388.139893 -91.000000
1390.032227 -110.000000
1391.924072 -32.000000
1393.815063 21.000000
1395.705444 124.000000
1397.595093 108.000000
1399.484009 25.000000
1401.372314 59.000000
1403.259888 22.000000
1405.146729 11.000000
1407.032959 -61.000000
1408.918335 -83.000000
1410.803223 30.000000
1412.687256 -37.000000
1414.570679 -172.000000
1416.453369 47.000000
1418.335327 -137.000000
1420.216675 -95.000000
1422.097290 99.000000
1423.977173 -13.000000
1425.856445 66.000000
1427.734985 123.000000
1429.612793 148.000000
1431.489990 112.000000
1433.366455 77.000000
1435.242188 57.000000
1437.117310 -86.000000
1438.991699 -99.000000
1440.865356 71.000000
1442.738403 106.000000
1444.610718 98.000000
1446.482422 52.000000
1448.353271 6.000000
1450.223511 75.000000
1452.093140 67.000000
1453.962036 60.000000
1455.830200 169.000000
1457.697632 146.000000
1459.564453 -57.000000
1461.430664 -43.000000
1463.296021 -76.000000
1465.160767 20.000000
1467.024902 117.000000
1468.888184 94.000000
1470.750854 -178.000000
1472.612915 -8.000000
1474.474243 202.000000
1476.334839 80.000000
1478.194824 -62.000000
1480.054077 52.000000
1481.912598 26.000000
1483.770508 -179.000000
1485.627686 -49.000000
1487.484253 -99.000000
1489.340088 -124.000000
1491.195190 -88.000000
1493.049683 19.000000
1494.903442 -38.000000
1496.756592 -2.000000
1498.609009 -1.000000
1500.460693 -1.000000
1502.311768 -6.000000
1504.162109 -27.000000
1506.011841 102.000000
1507.860840 15.000000
1509.709229 3.000000
1511.556885 -8.000000
1513.403809 -117.000000
1515.250122 -93.000000
1517.095703 -70.000000
1518.940674 1.000000
1520.784912 -31.000000
1522.628418 -64.000000
1524.471313 -156.000000
1526.313599 -27.000000
1528.155029 78.000000
1529.995972 91.000000
1531.836060 -150.000000
1533.675659 17.000000
1535.514404 17.000000
1537.352539 -37.000000
1539.190063 5.000000
1541.026855 12.000000
1542.862915 -13.000000
1544.698364 -38.000000
1546.533081 -45.000000
1548.367188 21.000000
1550.200684 29.000000
1552.033325 37.000000
1553.865356 71.000000
1555.696777 32.000000
1557.527466 -7.000000
1559.357544 64.000000
1561.186890 29.000000
1563.015625 -5.000000
1564.843628 -12.000000
1566.670898 -27.000000
1568.497559 -43.000000
1570.323608 -16.000000
1572.148926 -78.000000
1573.973633 -19.000000
1575.797607 76.000000
1577.620850 47.000000
1579.443481 -111.000000
1581.265503 -16.000000
1583.086792 -51.000000
1584.907349 -140.000000
1586.727295 -230.000000
1588.546631 -163.000000
1590.365234 33.000000
1592.183105 -25.000000
1594.000366 -84.000000
1595.817017 -112.000000
1597.632935 -60.000000
1599.448242 -57.000000
1601.262817 -54.000000
1603.076782 -80.000000
1604.890015 -108.000000
1606.702637 -136.000000
1608.514526 -158.000000
1610.325806 88.000000
1612.136353 96.000000
1613.946289 -34.000000
1615.755493 54.000000
1617.564087 106.000000
1619.372070 167.000000
1621.179321 -69.000000
1622.985840 143.000000
1624.791870 58.000000
1626.597046 5.000000
1628.401733 91.000000
1630.205566 27.000000
1632.008911 -55.000000
1633.811523 -22.000000
1635.613403 149.000000
1637.414673 133.000000
1639.215332 47.000000
1641.015259 70.000000
1642.814575 -103.000000
1644.613159 50.000000
1646.411133 7.000000
1648.208496 60.000000
1650.005127 0.000000
1651.801025 56.000000
1653.596313 -56.000000
1655.390991 63.000000
1657.185059 15.000000
1658.978394 -27.000000
1660.770996 10.000000
1662.562988 113.000000
1664.354370 49.000000
1666.145020 -15.000000
1667.935059 -40.000000
1669.724487 119.000000
1671.513184 19.000000
1673.301270 -27.000000
1675.088623 -74.000000
1676.875366 4.000000
1678.661499 82.000000
1680.446899 197.000000
1682.231689 -17.000000
1684.015747 -38.000000
1685.799194 -60.000000
1687.582031 10.000000
1689.364136 48.000000
1691.145630 108.000000
1692.926392 108.000000
1694.706543 -93.000000
1696.486084 -74.000000
1698.265015 -51.000000
1700.043213 49.000000
1701.820679 169.000000
1703.597656 156.000000
1705.373901 13.000000
1707.149414 87.000000
1708.924316 131.000000
1710.698608 -85.000000
1712.472290 -37.000000
1714.245239 -84.000000
1716.017578 45.000000
1717.789185 -73.000000
1719.560181 -67.000000
1721.330566 -62.000000
1723.100342 -33.000000
1724.869385 24.000000
1726.637695 81.000000
1728.405518 48.000000
1730.172607 16.000000
1731.939087 -54.000000
1733.704834 2.000000
1735.469971 116.000000
1737.234497 25.000000
1738.998413 67.000000
1740.761597 -71.000000
1742.524048 63.000000
1744.286011 16.000000
1746.047241 17.000000
1747.807861 -49.000000
1749.567871 -80.000000
1751.327148 -119.000000
1753.085815 60.000000
1754.843750 -2.000000
1756.601196 -77.000000
1758.357910 18.000000
1760.113892 -47.000000
1761.869385 -46.000000
1763.624146 -45.000000
1765.378296 51.000000
1767.131714 148.000000
1768.884644 106.000000
1770.636719 -40.000000
1772.388306 24.000000
1774.139282 88.000000
1775.889526 85.000000
1777.639038 -39.000000
1779.388062 -9.000000
1781.136353 -94.000000
1782.884033 -47.000000
1784.631104 35.000000
1786.377441 31.000000
1788.123291 106.000000
1789.868286 66.000000
1791.612793 61.000000
1793.356567 17.000000
1795.099731 -27.000000
1796.842285 -29.000000
1798.584229 55.000000
1800.325439 44.000000
1802.066040 33.000000
1803.806030 120.000000
1805.545410 125.000000
1807.284058 141.000000
1809.022095 158.000000
1810.759521 97.000000
1812.496216 -38.000000
1814.232422 -39.000000
1815.967896 0.000000
1817.702759 38.000000
1819.436890 -31.000000
1821.170532 29.000000
1822.903442 89.000000
1824.635742 110.000000
1826.367432 131.000000
1828.098389 107.000000
1829.828735 51.000000
1831.558472 -2.000000
1833.287598 -55.000000
1835.016113 -71.000000
1836.743896 -43.000000
1838.471069 39.000000
1840.197632 -52.000000
1841.923584 114.000000
1843.648804 -2.000000
1845.373535 -107.000000
1847.097534 -38.000000
1848.820923 31.000000
1850.543579 29.000000
1852.265747 27.000000
1853.987183 31.000000
1855.708008 -23.000000
1857.428223 82.000000
1859.147827 -10.000000
1860.866699 -119.000000
1862.585083 -67.000000
1864.302734 -93.000000
1866.019775 73.000000
1867.736206 28.000000
1869.451904 6.000000
1871.167114 23.000000
1872.881592 41.000000
1874.595459 -39.000000
1876.308716 -28.000000
1878.021240 56.000000
1879.733276 50.000000
1881.444580 -35.000000
1883.155396 -23.000000
1884.865479 -5.000000
1886.574829 12.000000
1888.283691 44.000000
1889.991943 75.000000
1891.699463 -76.000000
1893.406372 27.000000
1895.112671 -6.000000
1896.818359 37.000000
1898.523438 80.000000
1900.227905 122.000000
1901.931641 6.000000
1903.634888 -83.000000
1905.337402 -104.000000
1907.039307 -139.000000
1908.740601 -79.000000
1910.441284 -21.000000
1912.141235 29.000000
1913.840698 79.000000
1915.539429 71.000000
1917.237549 85.000000
1918.935059 86.000000
1920.631958 88.000000
1922.328247 153.000000
1924.023926 38.000000
1925.718994 34.000000
1927.413330 30.000000
1929.107056 -56.000000
1930.800293 -78.000000
1932.492798 -84.000000
1934.184692 -23.000000
1935.875977 -47.000000
1937.566650 1.000000
1939.256592 -10.000000
1940.946045 -22.000000
1942.634766 -8.000000
1944.322998 -115.000000
1946.010498 -109.000000
1947.697388 -103.000000
1949.383789 -89.000000
1951.069458 -68.000000
1952.754395 -48.000000
1954.438843 -19.000000
1956.122681 -22.000000
1957.805908 -25.000000
1959.488403 -65.000000
1961.170410 -107.000000
1962.851685 -53.000000
1964.532349 132.000000
1966.212524 138.000000
1967.891968 42.000000
1969.570801 6.000000
1971.249023 -29.000000
1972.926636 12.000000
1974.603638 26.000000
1976.280029 -85.000000
1977.955688 -18.000000
1979.630859 52.000000
1981.305420 0.000000
1982.979248 100.000000
1984.652588 -52.000000
1986.325195 -52.000000
1987.997314 -58.000000
1989.668701 -95.000000
1991.339478 -109.000000
1993.009644 28.000000
1994.679321 0.000000
1996.348267 71.000000
1998.016602 -8.000000
1999.684326 28.000000
2001.351440 -41.000000
2003.017944 -7.000000
2004.683838 65.000000
2006.349121 8.000000
2008.013794 -202.000000
2009.677856 -224.000000
2011.341187 -116.000000
2013.004028 -204.000000
2014.666260 -151.000000
2016.327881 -193.000000
2017.988770 -236.000000
2019.649170 -263.000000
2021.308960 53.000000
2022.968018 -49.000000
2024.626587 104.000000
2026.284546 5.000000
2027.941772 53.000000
2029.598511 40.000000
2031.254517 27.000000
2032.910034 68.000000
2034.564941 109.000000
2036.219116 92.000000
2037.872803 -8.000000
2039.525757 -41.000000
2041.178223 -235.000000
2042.829956 -150.000000
2044.481201 -92.000000
2046.131836 -35.000000
2047.781738 25.000000
2049.431152 43.000000
2051.079834 62.000000
2052.728027 70.000000
2054.375488 20.000000
2056.022461 -32.000000
2057.668701 -85.000000
2059.314453 -23.000000
2060.959717 -143.000000
2062.604248 -66.000000
2064.248047 38.000000
2065.891357 32.000000
2067.533936 31.000000
2069.176025 31.000000
2070.817627 41.000000
2072.458496 54.000000
2074.098633 136.000000
2075.738281 108.000000
2077.377441 -53.000000
2079.015869 -258.000000
2080.653564 2.000000
2082.290771 -88.000000
2083.927490 71.000000
2085.563477 -96.000000
2087.198975 -29.000000
2088.833740 -68.000000
2090.468018 20.000000
2092.101562 -34.000000
2093.734619 -124.000000
2095.366943 -1.000000
2096.998779 -105.000000
2098.629883 -215.000000
2100.260498 -137.000000
2101.890381 -28.000000
2103.519775 121.000000
2105.148682 -211.000000
2106.776855 -53.000000
2108.404297 -48.000000
2110.031494 -84.000000
2111.657715 276.000000
2113.283447 98.000000
2114.908691 76.000000
2116.533203 55.000000
2118.157227 -44.000000
2119.780518 98.000000
2121.403320 -99.000000
2123.025635 -1.000000
2124.647217 0.000000
2126.268066 0.000000
2127.888428 -133.000000
2129.508301 -94.000000
2131.127441 -55.000000
2132.746094 -4.000000
2134.364014 114.000000
2135.981445 40.000000
2137.598145 -91.000000
2139.214355 12.000000
2140.830078 -109.000000
2142.445068 -30.000000
2144.059326 -142.000000
2145.673096 13.000000
2147.286377 -33.000000
2148.898926 -79.000000
2150.510986 -59.000000
2152.122314 -137.000000
2153.733154 -216.000000
2155.343506 -43.000000
2156.953125 -68.000000
2158.562012 141.000000
2160.170410 -17.000000
2161.778320 -18.000000
2163.385498 -38.000000
2164.992188 -59.000000
2166.598389 1.000000
2168.203857 61.000000
2169.808594 107.000000
2171.412842 -101.000000
2173.016602 50.000000
2174.619629 -106.000000
2176.222168 30.000000
2177.824219 159.000000
2179.425537 94.000000
2181.026123 25.000000
2182.626221 -43.000000
2184.225830 43.000000
2185.824707 100.000000
2187.423096 157.000000
2189.020996 40.000000
2190.618164 -85.000000
2192.214600 53.000000
2193.810547 -123.000000
2195.406006 105.000000
2197.000732 -29.000000
2198.594971 -98.000000
2200.188721 82.000000
2201.781738 -82.000000
2203.374268 3.000000
2204.966064 -56.000000
2206.557373 -116.000000
2208.147949 -154.000000
2209.738037 -108.000000
2211.327637 -3.000000
2212.916504 -40.000000
2214.504883 -147.000000
2216.092529 -149.000000
2217.679688 -10.000000
2219.266357 -89.000000
2220.852295 -55.000000
2222.437744 -162.000000
2224.022461 -22.000000
2225.606689 -68.000000
2227.190430 -115.000000
2228.773438 -201.000000
2230.355957 -115.000000
2231.937744 -30.000000
2233.519043 -37.000000
2235.099609 -117.000000
2236.679932 -175.000000
2238.259277 -115.000000
2239.838379 91.000000
2241.416748 1.000000
2242.994385 -17.000000
2244.571533 87.000000
2246.148193 -55.000000
2247.724365 -60.000000
2249.299805 -66.000000
2250.874512 -60.000000
2252.448975 -58.000000
2254.022461 -313.000000
2255.595703 -250.000000
2257.168213 -129.000000
2258.740234 -9.000000
2260.311523 -65.000000
2261.882324 -24.000000
2263.452393 93.000000
2265.021973 35.000000
2266.591064 52.000000
2268.159668 -83.000000
2269.727539 -102.000000
2271.294678 162.000000
2272.861328 71.000000
2274.427490 40.000000
2275.993164 -76.000000
2277.558105 -155.000000
2279.122559 -64.000000
2280.686279 26.000000
2282.249512 16.000000
2283.812256 27.000000
2285.374268 39.000000
2286.935791 3.000000
2288.496582 -61.000000
2290.056885 69.000000
2291.616699 -68.000000
2293.176025 11.000000
2294.734619 91.000000
2296.292480 30.000000
2297.849854 3.000000
2299.406738 -23.000000
2300.963135 -34.000000
2302.518799 -45.000000
2304.073975 -89.000000
2305.628418 52.000000
2307.182617 232.000000
2308.735840 193.000000
2310.288818 22.000000
2311.841064 -148.000000
2313.392578 72.000000
2314.943848 -148.000000
2316.494385 -118.000000
2318.044189 -89.000000
2319.593750 -96.000000
2321.142334 -34.000000
2322.690674 27.000000
2324.238281 -47.000000
2325.785400 -111.000000
2327.332031 -175.000000
2328.877930 -43.000000
2330.423096 88.000000
2331.968018 57.000000
2333.512207 74.000000
2335.055908 98.000000
2336.598877 122.000000
2338.141357 103.000000
2339.683350 28.000000
2341.224609 -30.000000
2342.765381 90.000000
2344.305664 -138.000000
2345.845215 -140.000000
2347.384277 -143.000000
2348.922852 -132.000000
2350.460693 -109.000000
2351.998047 -106.000000
2353.534912 -103.000000
2355.071045 -15.000000
2356.606689 -81.000000
2358.141846 24.000000
2359.676270 -76.000000
2361.210205 -56.000000
2362.743652 127.000000
2364.276367 64.000000
2365.808594 -61.000000
2367.340088 -117.000000
2368.871338 -123.000000
2370.401855 196.000000
2371.931641 103.000000
2373.461182 -72.000000
2374.989990 -132.000000
2376.518066 89.000000
2378.045898 85.000000
2379.572998 -66.000000
2381.099365 -8.000000
2382.625488 -64.000000
2384.150879 -120.000000
2385.675781 -254.000000
2387.199951 -215.000000
2388.723633 45.000000
2390.246826 -17.000000
2391.769287 23.000000
2393.291260 -163.000000
2394.812744 -64.000000
2396.333740 -45.000000
2397.854004 -27.000000
2399.373779 -23.000000
2400.892822 -135.000000
2402.411377 -80.000000
2403.929443 -60.000000
2405.447021 -3.000000
2406.963867 -173.000000
2408.480225 1.000000
2409.996094 91.000000
2411.511230 182.000000
2413.025879 88.000000
2414.540039 134.000000
2416.053711 -50.000000
2417.566650 -9.000000
2419.079102 -125.000000
2420.590820 -86.000000
2422.102051 13.000000
2423.612793 114.000000
2425.123047 50.000000
2426.632568 -13.000000
2428.141602 68.000000
2429.650146 -12.000000
2431.157959 62.000000
2432.665527 22.000000
2434.172119 -34.000000
2435.678467 -91.000000
2437.184082 -99.000000
2438.689209 -241.000000
2440.193848 -200.000000
2441.697754 165.000000
2443.201172 70.000000
2444.704102 86.000000
2446.206299 -216.000000
2447.708252 -172.000000
2449.209473 -105.000000
2450.709961 165.000000
2452.209961 157.000000
2453.709717 150.000000
2455.208496 33.000000
2456.707031 -84.000000
2458.204834 -56.000000
2459.702148 -10.000000
2461.198730 35.000000
2462.695068 44.000000
2464.190674 -46.000000
2465.685791 25.000000
2467.180176 97.000000
2468.674072 110.000000
2470.167480 116.000000
2471.660400 122.000000
2473.152588 74.000000
2474.644287 179.000000
2476.135498 284.000000
2477.626221 163.000000
2479.116211 236.000000
2480.605713 -28.000000
2482.094727 49.000000
2483.583008 -183.000000
2485.070801 -127.000000
2486.558105 -71.000000
2488.044922 -123.000000
2489.531006 155.000000
2491.016602 164.000000
2492.501709 173.000000
2493.986328 118.000000
2495.470215 -52.000000
2496.953613 -49.000000
2498.436523 -46.000000
2499.918701 -32.000000
2501.400391 -18.000000
2502.881592 14.000000
2504.362305 46.000000
2505.842529 54.000000
2507.322021 278.000000
2508.801025 311.000000
2510.279297 -79.000000
2511.757324 -73.000000
2513.234619 164.000000
2514.711426 65.000000
2516.187500 -78.000000
2517.663330 -131.000000
2519.138428 -185.000000
2520.613037 -166.000000
2522.086914 -148.000000
2523.560547 -217.000000
2525.033447 93.000000
2526.505859 165.000000
2527.977539 -15.000000
2529.448975 58.000000
2530.919678 -23.000000
2532.389893 -73.000000
2533.859375 102.000000
2535.328613 48.000000
2536.797119 201.000000
2538.265137 162.000000
2539.732422 124.000000
2541.199463 39.000000
2542.665771 -46.000000
2544.131592 -93.000000
2545.596680 -167.000000
2547.061523 99.000000
2548.525635 -168.000000
2549.989258 99.000000
2551.452148 5.000000
2552.914795 84.000000
2554.376709 163.000000
2555.838135 173.000000
2557.299072 35.000000
2558.759277 211.000000
2560.219238 -121.000000
2561.678467 -228.000000
2563.137207 65.000000
2564.595215 -49.000000
2566.052734 76.000000
2567.510010 -151.000000
2568.966309 111.000000
2570.422363 22.000000
2571.877930 34.000000
2573.332764 4.000000
2574.787109 -26.000000
2576.240723 97.000000
2577.694092 182.000000
2579.146729 78.000000
2580.598877 14.000000
2582.050537 -49.000000
2583.501709 -99.000000
2584.952148 49.000000
2586.402100 -70.000000
2587.851562 -189.000000
2589.300537 -53.000000
2590.749023 -10.000000
2592.196777 32.000000
2593.644043 -70.000000
2595.090820 -67.000000
2596.536865 -65.000000
2597.982666 -65.000000
2599.427734 -229.000000
2600.872314 -95.000000
2602.316406 120.000000
2603.759766 -58.000000
2605.202881 63.000000
2606.645264 -82.000000
2608.087158 -20.000000
2609.528320 42.000000
2610.969238 23.000000
2612.409424 -36.000000
2613.849121 118.000000
2615.288330 -143.000000
2616.727051 -21.000000
2618.165039 9.000000
2619.602783 40.000000
2621.039795 -61.000000
2622.476318 45.000000
2623.912109 -34.000000
2625.347656 -46.000000
2626.782471 -32.000000
2628.216797 0.000000
2629.650635 -55.000000
2631.083740 -111.000000
2632.516602 -9.000000
2633.948730 82.000000
2635.380371 44.000000
2636.811523 -109.000000
2638.242188 -175.000000
2639.672119 -153.000000
2641.101562 -131.000000
2642.530518 -73.000000
2643.958984 -54.000000
2645.386963 132.000000
2646.814209 -31.000000
2648.241211 51.000000
2649.667480 44.000000
2651.093262 7.000000
2652.518555 -44.000000
2653.943115 91.000000
2655.367188 -73.000000
2656.791016 117.000000
2658.214111 -158.000000
2659.636475 -79.000000
2661.058594 -83.000000
2662.479980 157.000000
2663.901123 93.000000
2665.321533 -171.000000
2666.741211 -193.000000
2668.160645 -29.000000
2669.579590 -25.000000
2670.997803 -21.000000
2672.415527 117.000000
2673.832764 136.000000
2675.249512 -14.000000
2676.665527 51.000000
2678.081299 -35.000000
2679.496338 49.000000
2680.910889 -35.000000
2682.324951 57.000000
2683.738525 48.000000
2685.151367 39.000000
2686.563965 -13.000000
2687.975830 -56.000000
2689.387207 -100.000000
2690.798096 -61.000000
2692.208496 43.000000
2693.618164 -118.000000
2695.027344 -101.000000
2696.436279 129.000000
2697.844482 112.000000
2699.251953 35.000000
2700.659180 -116.000000
2702.065918 -130.000000
2703.471924 -59.000000
2704.877441 11.000000
2706.282471 -70.000000
2707.687012 -151.000000
2709.091064 -65.000000
2710.494385 163.000000
2711.897461 167.000000
2713.299805 57.000000
2714.701660 143.000000
2716.103027 124.000000
2717.503906 106.000000
2718.904053 104.000000
2720.303955 66.000000
2721.703125 28.000000
2723.101807 94.000000
2724.500000 -108.000000
2725.897705 -84.000000
2727.294678 -60.000000
2728.691406 52.000000
2730.087402 -74.000000
2731.482910 -52.000000
2732.877930 154.000000
2734.272461 34.000000
2735.666504 99.000000
2737.060059 171.000000
2738.452881 115.000000
2739.845215 100.000000
2741.237061 85.000000
2742.628418 76.000000
2744.019287 30.000000
2745.409668 -16.000000
2746.799561 188.000000
2748.188721 -133.000000
2749.577393 -194.000000
2750.965576 -58.000000
2752.353271 -209.000000
2753.740479 -117.000000
2755.127197 140.000000
2756.513428 -30.000000
2757.898926 152.000000
2759.283936 -140.000000
2760.668457 -154.000000
2762.052490 17.000000
2763.436035 -110.000000
2764.819092 -75.000000
2766.201660 10.000000
2767.583496 159.000000
2768.964844 73.000000
2770.345947 -57.000000
2771.726318 -50.000000
2773.106201 -43.000000
2774.485596 39.000000
2775.864258 116.000000
2777.242676 51.000000
2778.620361 164.000000
2779.997559 65.000000
2781.374512 146.000000
2782.750732 100.000000
2784.126465 55.000000
2785.501465 -81.000000
2786.876221 42.000000
2788.250488 -101.000000
2789.624023 -60.000000
2790.997070 -20.000000
2792.369629 -10.000000
2793.741699 22.000000
2795.113281 -10.000000
2796.484375 134.000000
2797.854980 -3.000000
2799.224854 91.000000
2800.594482 104.000000
2801.963379 148.000000
2803.331787 -22.000000
2804.699951 115.000000
2806.067383 165.000000
2807.434082 216.000000
2808.800537 31.000000
2810.166504 365.000000
2811.531738 325.000000
2812.896729 -76.000000
2814.260986 -8.000000
2815.624756 -94.000000
2816.988037 -181.000000
2818.350830 -101.000000
2819.713135 307.000000
2821.074951 -114.000000
2822.436035 -94.000000
2823.796875 -74.000000
2825.156982 -104.000000
2826.516846 -44.000000
2827.875977 -168.000000
2829.234619 -93.000000
2830.592773 -19.000000
2831.950439 64.000000
2833.307617 -85.000000
2834.664062 -17.000000
2836.020264 -62.000000
2837.375732 -13.000000
2838.730957 36.000000
2840.085449 36.000000
2841.439453 179.000000
2842.792969 -108.000000
2844.145996 114.000000
2845.498535 185.000000
2846.850586 208.000000
2848.202148 231.000000
2849.552979 259.000000
2850.903564 25.000000
2852.253418 134.000000
2853.603027 244.000000
2854.951904 50.000000
2856.300293 -143.000000
2857.648193 -99.000000
2858.995605 -56.000000
2860.342529 32.000000
2861.688721 -147.000000
2863.034668 -326.000000
2864.380127 -163.000000
2865.724854 -38.000000
2867.069336 87.000000
2868.413086 -6.000000
2869.756348 -67.000000
2871.099121 215.000000
2872.441406 -71.000000
2873.783203 -15.000000
2875.124512 -74.000000
2876.465332 -151.000000
2877.805664 -79.000000
2879.145508 -154.000000
2880.484619 -150.000000
2881.823486 150.000000
2883.161621 -65.000000
2884.499268 69.000000
2885.836670 -89.000000
2887.173340 80.000000
2888.509521 111.000000
2889.845215 114.000000
2891.180420 118.000000
2892.515137 136.000000
2893.849365 155.000000
2895.182861 210.000000
2896.516113 87.000000
2897.848633 -59.000000
2899.180908 -27.000000
2900.512451 -113.000000
2901.843750 -50.000000
2903.174316 17.000000
2904.504395 85.000000
2905.833984 21.000000
2907.163086 -43.000000
2908.491699 -17.000000
2909.819824 -390.000000
2911.147461 -63.000000
2912.474609 252.000000
2913.801270 245.000000
2915.127441 94.000000
2916.452881 122.000000
2917.778076 151.000000
2919.102539 142.000000
2920.426758 68.000000
2921.750244 125.000000
2923.073242 172.000000
2924.395996 220.000000
2925.718018 344.000000
2927.039551 183.000000
2928.360596 6.000000
2929.681152 377.000000
2931.001221 61.000000
2932.320801 149.000000
2933.639893 -98.000000
2934.958252 86.000000
2936.276367 -55.000000
2937.593994 206.000000
2938.910889 178.000000
2940.227539 -125.000000
2941.543457 108.000000
2942.859131 66.000000
2944.174072 5.000000
2945.488770 -55.000000
2946.802734 -64.000000
2948.116211 144.000000
2949.429199 56.000000
2950.741943 -31.000000
2952.053955 -181.000000
2953.365479 -174.000000
2954.676514 -80.000000
2955.987061 217.000000
2957.297119 69.000000
2958.606689 -78.000000
2959.915527 -81.000000
2961.224121 -94.000000
2962.532227 -119.000000
2963.839844 -239.000000
2965.146729 -360.000000
2966.453369 -56.000000
2967.759521 29.000000
2969.064941 115.000000
2970.370117 36.000000
2971.674561 61.000000
2972.978760 146.000000
2974.282227 -198.000000
2975.585205 43.000000
2976.887939 -119.000000
2978.189941 -281.000000
2979.491455 -245.000000
2980.792480 -206.000000
2982.093018 -119.000000
2983.393311 9.000000
2984.692871 -17.000000
2985.991943 117.000000
2987.290527 -15.000000
2988.588623 13.000000
2989.886230 32.000000
2991.183350 110.000000
2992.479980 85.000000
2993.776123 60.000000
2995.071777 -9.000000
2996.366699 65.000000
2997.661377 -163.000000
2998.955566 16.000000
3000.249268 -104.000000
3001.542236 -140.000000
3002.834961 4.000000
3004.127197 -95.000000
3005.418945 -165.000000
3006.709961 -200.000000
3008.000732 302.000000
3009.290771 201.000000
3010.580566 74.000000
3011.869873 -161.000000
3013.158447 -189.000000
3014.446777 73.000000
3015.734375 25.000000
3017.021729 -149.000000
3018.308350 -323.000000
3019.594727 -113.000000
3020.880371 -224.000000
3022.165527 79.000000
3023.450439 63.000000
3024.734619 126.000000
3026.018555 124.000000
3027.301758 122.000000
3028.584473 49.000000
3029.866943 -23.000000
3031.148682 -32.000000
3032.429932 55.000000
3033.710938 143.000000
3034.991211 30.000000
3036.270996 146.000000
3037.550293 -25.000000
3038.829346 -14.000000
3040.107666 -63.000000
3041.385498 56.000000
3042.662842 49.000000
3043.939941 42.000000
3045.216309 113.000000
3046.492188 89.000000
3047.767578 159.000000
3049.042725 229.000000
3050.317139 296.000000
3051.591064 156.000000
3052.864502 16.000000
3054.137451 61.000000
3055.410156 45.000000
3056.682129 30.000000
3057.953613 11.000000
3059.224609 78.000000
3060.495361 145.000000
3061.765381 -33.000000
3063.034912 46.000000
3064.303955 126.000000
3065.572754 214.000000
3066.840820 107.000000
3068.108398 0.000000
3069.375488 61.000000
3070.642334 122.000000
3071.908447 81.000000
3073.174072 -3.000000
3074.439209 -88.000000
3075.704102 66.000000
3076.968262 -35.000000
3078.231934 101.000000
3079.495361 -62.000000
3080.758057 -45.000000
3082.020264 -28.000000
3083.282227 84.000000
3084.543457 107.000000
3085.804199 130.000000
3087.064697 138.000000
3088.324463 211.000000
3089.583984 -159.000000
3090.842773 0.000000
3092.101074 185.000000
3093.359131 197.000000
3094.616455 210.000000
3095.873535 176.000000
3097.129883 40.000000
3098.385986 -95.000000
3099.641602 -27.000000
3100.896484 41.000000
3102.151123 -91.000000
3103.405029 -173.000000
3104.658691 167.000000
3105.911865 71.000000
3107.164307 130.000000
3108.416504 190.000000
3109.668213 -17.000000
3110.919434 216.000000
3112.169922 -44.000000
3113.420166 238.000000
3114.669922 311.000000
3115.919189 188.000000
3117.167969 253.000000
3118.416260 119.000000
3119.664062 39.000000
3120.911377 173.000000
3122.158203 -62.000000
3123.404541 79.000000
3124.650391 140.000000
3125.895752 212.000000
3127.140625 -100.000000
3128.385010 142.000000
3129.629150 91.000000
3130.872559 40.000000
3132.115479 -5.000000
3133.357910 -50.000000
3134.600098 -72.000000
3135.841553 -118.000000
3137.082764 -165.000000
3138.323242 -105.000000
3139.563477 101.000000
3140.802979 307.000000
3142.042236 113.000000
3143.280762 -232.000000
3144.519043 -291.000000
3145.756836 -36.000000
3146.993896 -166.000000
3148.230713 -93.000000
3149.467041 159.000000
3150.702881 -108.000000
3151.938232 -1.000000
3153.173096 106.000000
3154.407471 -77.000000
3155.641357 68.000000
3156.874756 -149.000000
3158.107666 -27.000000
3159.340088 -65.000000
3160.572021 -104.000000
3161.803467 -165.000000
3163.034668 -48.000000
3164.265137 107.000000
3165.495361 262.000000
3166.724854 137.000000
3167.954102 12.000000
3169.182617 -5.000000
3170.410889 -216.000000
3171.638428 -19.000000
3172.865723 -186.000000
3174.092529 -171.000000
3175.318848 143.000000
3176.544678 -233.000000
3177.770020 259.000000
3178.994873 282.000000
3180.219238 -207.000000
3181.443115 128.000000
3182.666504 118.000000
3183.889404 108.000000
3185.111816 -2.000000
3186.333984 -116.000000
3187.555420 -76.000000
3188.776611 -36.000000
3189.997070 -155.000000
3191.217285 262.000000
3192.436768 229.000000
3193.656006 -127.000000
3194.874756 -52.000000
3196.093018 -200.000000
3197.310547 -211.000000
3198.527832 -198.000000
3199.744629 -160.000000
3200.960938 -123.000000
3202.177002 -65.000000
3203.392334 13.000000
3204.607178 67.000000
3205.821533 -138.000000
3207.035645 -44.000000
3208.249023 -41.000000
3209.462158 -39.000000
3210.674561 -10.000000
3211.886719 -63.000000
3213.098389 219.000000
3214.309570 291.000000
3215.520264 18.000000
3216.730469 285.000000
3217.940186 207.000000
3219.149414 330.000000
3220.358154 103.000000
3221.566406 -509.000000
3222.774414 -451.000000
3223.981689 161.000000
3225.188721 10.000000
3226.395020 30.000000
3227.601074 50.000000
3228.806396 -214.000000
3230.011475 -57.000000
3231.216064 -579.000000
3232.420166 131.000000
3233.623779 -258.000000
3234.826904 98.000000
3236.029541 -162.000000
3237.231934 -149.000000
3238.433594 -146.000000
3239.635010 -113.000000
3240.835693 -81.000000
3242.036133 -13.000000
3243.235840 15.000000
3244.435303 43.000000
3245.634277 213.000000
3246.832764 169.000000
3248.030762 126.000000
3249.228271 109.000000
3250.425293 93.000000
3251.622070 131.000000
3252.818115 -352.000000
3254.013672 -71.000000
3255.208984 -46.000000
3256.403809 -22.000000
3257.597900 -8.000000
3258.791748 -33.000000
3259.985107 -66.000000
3261.177979 121.000000
3262.370361 63.000000
3263.562256 205.000000
3264.753906 207.000000
3265.944824 -88.000000
3267.135498 -286.000000
3268.325439 -8.000000
3269.515137 -352.000000
3270.704346 102.000000
3271.893066 -64.000000
3273.081055 133.000000
3274.269043 237.000000
3275.456299 75.000000
3276.643066 -178.000000
3277.829346 38.000000
3279.015381 254.000000
3280.200684 108.000000
3281.385742 -4.000000
3282.570312 -117.000000
3283.754395 136.000000
3284.937988 354.000000
3286.121094 -190.000000
3287.303711 -293.000000
3288.485840 177.000000
3289.667480 67.000000
3290.848877 110.000000
3292.029541 153.000000
3293.209961 19.000000
3294.389893 -338.000000
3295.569336 -234.000000
3296.748291 69.000000
3297.926758 262.000000
3299.104736 177.000000
3300.282227 92.000000
3301.459473 89.000000
3302.635986 -50.000000
3303.812256 5.000000
3304.988037 -111.000000
3306.163330 -142.000000
3307.338135 -173.000000
3308.512451 -89.000000
3309.686279 -147.000000
3310.859619 -33.000000
3312.032715 -100.000000
3313.205078 111.000000
3314.377197 132.000000
3315.548828 153.000000
3316.719971 67.000000
3317.890625 -162.000000
3319.060791 -78.000000
3320.230469 -1.000000
3321.399902 75.000000
3322.568604 -58.000000
3323.737061 254.000000
3324.904785 121.000000
3326.072266 279.000000
3327.239258 50.000000
3328.405762 86.000000
3329.572021 64.000000
3330.737549 52.000000
3331.902588 41.000000
3333.067383 5.000000
3334.231689 -117.000000
3335.395508 189.000000
3336.558838 83.000000
3337.721680 163.000000
3338.884033 -65.000000
3340.045898 81.000000
3341.207520 15.000000
3342.368408 -50.000000
3343.529053 -42.000000
3344.689209 140.000000
3345.848877 16.000000
3347.008057 66.000000
3348.166748 -131.000000
3349.324951 50.000000
3350.482910 -16.000000
3351.640381 -95.000000
3352.797119 -174.000000
3353.953613 -185.000000
3355.109619 -67.000000
3356.265137 -102.000000
3357.420410 -138.000000
3358.574951 -157.000000
3359.729248 -108.000000
3360.882812 -59.000000
3362.036133 22.000000
3363.188965 70.000000
3364.341309 -39.000000
3365.493164 -124.000000
3366.644775 17.000000
3367.795654 -113.000000
3368.946289 -301.000000
3370.096436 -222.000000
3371.246094 79.000000
3372.395264 38.000000
3373.543945 -2.000000
3374.692139 34.000000
3375.840088 -45.000000
3376.987305 -160.000000
3378.134277 261.000000
3379.280762 221.000000
3380.426758 181.000000
3381.572266 126.000000
3382.717529 -369.000000
3383.862061 -208.000000
3385.006348 202.000000
3386.150146 169.000000
3387.293457 136.000000
3388.436279 122.000000
3389.578613 34.000000
3390.720459 37.000000
3391.862061 30.000000
3393.003174 -23.000000
3394.143555 14.000000
3395.283691 -23.000000
3396.423340 -185.000000
3397.562744 -129.000000
3398.701416 -73.000000
3399.839844 -139.000000
3400.977783 -273.000000
3402.114990 14.000000
3403.251953 -42.000000
3404.388672 -98.000000
3405.524658 -63.000000
3406.660156 157.000000
3407.795410 35.000000
3408.930176 159.000000
3410.064453 187.000000
3411.198242 216.000000
3412.331543 150.000000
3413.464600 -51.000000
3414.596924 0.000000
3415.729004 227.000000
3416.860596 -173.000000
3417.991699 -310.000000
3419.122314 162.000000
3420.252686 -137.000000
3421.382324 -125.000000
3422.511719 -117.000000
3423.640625 175.000000
3424.769043 6.000000
3425.896973 26.000000
3427.024658 180.000000
3428.151611 168.000000
3429.278320 116.000000
3430.404541 203.000000
3431.530273 217.000000
3432.655518 231.000000
3433.780273 80.000000
3434.904785 -119.000000
3436.028564 137.000000
3437.152100 -123.000000
3438.275146 95.000000
3439.397949 -6.000000
3440.520020 176.000000
3441.641602 -24.000000
3442.762939 92.000000
3443.883789 208.000000
3445.004150 208.000000
3446.124023 82.000000
3447.243652 -43.000000
3448.362549 149.000000
3449.481201 -174.000000
3450.599365 364.000000
3451.717041 302.000000
3452.834229 240.000000
3453.951172 343.000000
3455.067383 446.000000
3456.183350 431.000000
3457.298828 295.000000
3458.413818 -79.000000
3459.528564 -56.000000
3460.642578 -84.000000
3461.756348 -112.000000
3462.869629 -172.000000
3463.982422 -72.000000
3465.094727 -219.000000
3466.206543 102.000000
3467.318115 -141.000000
3468.429199 128.000000
3469.539795 -81.000000
3470.649902 -4.000000
3471.759521 72.000000
3472.868652 67.000000
3473.977539 62.000000
3475.085938 -40.000000
3476.193848 -64.000000
3477.301270 199.000000
3478.408447 103.000000
3479.514893 286.000000
3480.621094 144.000000
3481.726807 3.000000
3482.832031 18.000000
3483.937012 -25.000000
3485.041260 -205.000000
3486.145264 0.000000
3487.248779 376.000000
3488.351807 180.000000
3489.454346 -104.000000
3490.556641 244.000000
3491.658203 514.000000
3492.759521 312.000000
3493.860352 111.000000
3494.960693 -162.000000
3496.060791 111.000000
3497.160156 -124.000000
3498.259277 117.000000
3499.357910 114.000000
3500.456299 111.000000
3501.553955 25.000000
3502.651367 -19.000000
3503.748047 -63.000000
3504.844482 172.000000
3505.940674 332.000000
3507.036133 268.000000
3508.131348 205.000000
3509.225830 484.000000
3510.320068 166.000000
3511.413818 4.000000
3512.507324 -157.000000
3513.600098 -241.000000
3514.692627 -443.000000
3515.784668 -6.000000
3516.876221 289.000000
3517.967529 -128.000000
3519.058105 -114.000000
3520.148438 -100.000000
3521.238281 -97.000000
3522.327637 -90.000000
3523.416748 -233.000000
3524.505127 -314.000000
3525.593262 -163.000000
3526.680908 -12.000000
3527.768311 76.000000
3528.854980 165.000000
3529.941406 117.000000
3531.027100 -162.000000
3532.112793 -244.000000
3533.197754 -123.000000
3534.282227 -1.000000
3535.366455 120.000000
3536.450195 -111.000000
3537.533447 -52.000000
3538.616211 -24.000000
3539.698730 3.000000
3540.780762 -9.000000
3541.862305 -50.000000
3542.943359 -91.000000
3544.023926 -154.000000
3545.104248 193.000000
3546.183838 334.000000
3547.263184 476.000000
3548.342285 371.000000
3549.420654 249.000000
3550.498779 -85.000000
3551.576416 -16.000000
3552.653564 -128.000000
3553.730225 197.000000
3554.806641 129.000000
3555.882324 381.000000
3556.957764 254.000000
3558.032959 145.000000
3559.107422 21.000000
3560.181641 -102.000000
3561.255127 -193.000000
3562.328369 -285.000000
3563.401367 -289.000000
3564.473633 43.000000
3565.545654 409.000000
3566.617188 366.000000
3567.688232 184.000000
3568.759033 3.000000
3569.829102 137.000000
3570.898926 271.000000
3571.968262 36.000000
3573.037109 -352.000000
3574.105713 -208.000000
3575.173828 245.000000
3576.241455 -33.000000
3577.308594 -45.000000
3578.375244 361.000000
3579.441650 22.000000
3580.507568 101.000000
3581.572998 317.000000
3582.637939 62.000000
3583.702637 413.000000
3584.766846 203.000000
3585.830566 291.000000
3586.893799 -94.000000
3587.956543 80.000000
3589.019043 254.000000
3590.081055 35.000000
3591.142578 164.000000
3592.203857 27.000000
3593.264404 10.000000
3594.324707 194.000000
3595.384521 268.000000
3596.444092 342.000000
3597.502930 209.000000
3598.561523 44.000000
3599.619629 -157.000000
3600.677490 59.000000
3601.734619 275.000000
3602.791504 361.000000
3603.847900 301.000000
3604.903809 241.000000
3605.959473 193.000000
3607.014404 471.000000
3608.069092 422.000000
3609.123535 374.000000
3610.177246 295.000000
3611.230713 -142.000000
3612.283691 -208.000000
3613.336182 -275.000000
3614.388184 87.000000
3615.439941 -103.000000
3616.491211 -294.000000
3617.541992 -273.000000
3618.592285 -347.000000
3619.642334 -80.000000
3620.691895 119.000000
3621.740967 161.000000
3622.789551 299.000000
3623.837891 372.000000
3624.885742 445.000000
3625.933105 711.000000
3626.979980 262.000000
3628.026611 -95.000000
3629.072754 -68.000000
3630.118408 -42.000000
3631.163574 -58.000000
3632.208496 225.000000
3633.252930 14.000000
3634.296875 21.000000
3635.340332 -21.000000
3636.383545 -85.000000
3637.426025 -150.000000
3638.468506 -3.000000
3639.510254 172.000000
3640.551758 -370.000000
3641.592529 -266.000000
3642.633301 -162.000000
3643.673340 -3.000000
3644.713135 106.000000
3645.752197 216.000000
3646.791260 90.000000
3647.829590 -81.000000
3648.867676 -253.000000
3649.905029 -105.000000
3650.942383 -247.000000
3651.979004 134.000000
3653.015381 -141.000000
3654.051270 40.000000
3655.086670 40.000000
3656.121582 40.000000
3657.156250 51.000000
3658.190430 102.000000
3659.224121 54.000000
3660.257568 -182.000000
3661.290283 -274.000000
3662.322754 -241.000000
3663.354980 -208.000000
3664.386475 -69.000000
3665.417725 -212.000000
3666.448486 16.000000
3667.478760 -106.000000
3668.508789 -113.000000
3669.538330 -132.000000
3670.567383 272.000000
3671.595947 213.000000
3672.624268 -294.000000
3673.652100 -235.000000
3674.679443 -18.000000
3675.706543 199.000000
3676.732910 166.000000
3677.759033 -48.000000
3678.784912 -66.000000
3679.810059 -110.000000
3680.834961 -11.000000
3681.859375 -203.000000
3682.883301 357.000000
3683.906982 -170.000000
3684.930176 118.000000
3685.952881 -185.000000
3686.975098 85.000000
3687.997070 -74.000000
3689.018555 196.000000
3690.039551 297.000000
3691.060303 -91.000000
3692.080566 74.000000
3693.100342 52.000000
3694.119629 29.000000
3695.138672 93.000000
3696.157227 224.000000
3697.175293 526.000000
3698.192871 441.000000
3699.210205 336.000000
3700.227051 2.000000
3701.243408 108.000000
3702.259521 149.000000
3703.275146 -100.000000
3704.290283 -349.000000
3705.304932 -217.000000
3706.319336 116.000000
3707.333252 221.000000
3708.346680 289.000000
3709.359619 -178.000000
3710.372314 192.000000
3711.384521 -128.000000
3712.396484 154.000000
3713.407715 -51.000000
3714.418701 536.000000
3715.429199 -15.000000
3716.439453 39.000000
3717.449219 94.000000
3718.458496 132.000000
3719.467285 153.000000
3720.475830 174.000000
3721.483887 -68.000000
3722.491455 -299.000000
3723.498535 301.000000
3724.505371 -229.000000
3725.511719 -80.000000
3726.517578 -103.000000
3727.523193 -199.000000
3728.528320 -220.000000
3729.532959 -242.000000
3730.537354 -369.000000
3731.541016 -413.000000
3732.544678 396.000000
3733.547607 -304.000000
3734.550293 285.000000
3735.552490 239.000000
3736.554199 193.000000
3737.555420 236.000000
3738.556396 222.000000
3739.556885 -314.000000
3740.557129 197.000000
3741.556641 4.000000
3742.555908 70.000000
3743.554932 148.000000
3744.553223 -273.000000
3745.551270 -129.000000
3746.548828 -504.000000
3747.546143 -199.000000
3748.542969 -319.000000
3749.539307 135.000000
3750.535156 -106.000000
3751.530762 19.000000
3752.525879 -98.000000
3753.520508 43.000000
3754.514648 169.000000
3755.508545 588.000000
3756.502197 221.000000
3757.495117 -130.000000
3758.487793 19.000000
3759.479980 -198.000000
3760.471680 0.000000
3761.463135 334.000000
3762.454102 -242.000000
3763.444580 19.000000
3764.434814 15.000000
3765.424561 123.000000
3766.413818 127.000000
3767.402588 36.000000
3768.391113 -55.000000
3769.379150 -57.000000
3770.366699 89.000000
3771.354004 8.000000
3772.340820 112.000000
3773.327393 200.000000
3774.313232 288.000000
3775.298828 249.000000
3776.283936 397.000000
3777.268799 108.000000
3778.253174 -248.000000
3779.237061 -604.000000
3780.220459 -225.000000
3781.203613 -191.000000
3782.186279 230.000000
3783.168701 -32.000000
3784.150391 177.000000
3785.131836 202.000000
3786.113037 111.000000
3787.093506 20.000000
3788.073730 -56.000000
3789.053711 -163.000000
3790.032959 476.000000
3791.011963 308.000000
3791.990479 -4.000000
3792.968750 334.000000
3793.946533 -93.000000
3794.923828 288.000000
3795.900635 85.000000
3796.877197 -117.000000
3797.853271 -394.000000
3798.829102 -359.000000
3799.804199 -325.000000
3800.779053 -97.000000
3801.753662 281.000000
3802.727783 205.000000
3803.701416 130.000000
3804.674561 12.000000
3805.647461 -106.000000
3806.619873 -24.000000
3807.591797 47.000000
3808.563232 118.000000
3809.534424 122.000000
3810.505371 36.000000
3811.475586 221.000000
3812.445557 -33.000000
3813.415039 -287.000000
3814.384277 -460.000000
3815.353027 -380.000000
3816.321289 -300.000000
3817.289062 206.000000
3818.256592 266.000000
3819.223633 326.000000
3820.190430 347.000000
3821.156738 204.000000
3822.122559 62.000000
3823.087891 66.000000
3824.052979 435.000000
3825.017578 423.000000
3825.981934 -398.000000
3826.945557 -826.000000
3827.909180 -619.000000
3828.872070 328.000000
3829.834717 537.000000
3830.796875 256.000000
3831.758545 504.000000
3832.719971 16.000000
3833.680908 58.000000
3834.641357 -125.000000
3835.601562 427.000000
3836.561279 270.000000
3837.520752 113.000000
3838.479492 407.000000
3839.437988 366.000000
3840.396240 572.000000
3841.354004 12.000000
3842.311279 -131.000000
3843.268066 139.000000
3844.224609 -55.000000
3845.180664 -171.000000
3846.136230 -42.000000
3847.091553 -169.000000
3848.046387 32.000000
3849.000977 234.000000
3849.954834 55.000000
3850.908447 256.000000
3851.861816 -76.000000
3852.814697 141.000000
3853.767090 -89.000000
3854.718994 -137.000000
3855.670654 -124.000000
3856.621826 -45.000000
3857.572510 318.000000
3858.522949 172.000000
3859.472900 133.000000
3860.422607 -354.000000
3861.371826 -255.000000
3862.320557 182.000000
3863.268799 277.000000
3864.216797 65.000000
3865.164307 -108.000000
3866.111572 78.000000
3867.058350 143.000000
3868.004639 209.000000
3868.950684 414.000000
3869.895996 30.000000
3870.841309 -445.000000
3871.785889 -329.000000
3872.730225 -214.000000
3873.674316 -115.000000
3874.617676 -17.000000
3875.560791 83.000000
3876.503418 246.000000
3877.445801 206.000000
3878.387695 -321.000000
3879.329346 665.000000
3880.270264 -379.000000
3881.210938 -306.000000
3882.151367 633.000000
3883.091309 106.000000
3884.030762 97.000000
3884.969727 106.000000
3885.908447 -9.000000
3886.846680 -124.000000
3887.784668 -35.000000
3888.721924 -4.000000
3889.659180 -88.000000
3890.595703 -173.000000
3891.531982 -4.000000
3892.468018 -144.000000
3893.403320 89.000000
3894.338379 209.000000
3895.272949 -57.000000
3896.207275 -571.000000
3897.141113 -31.000000
3898.074707 -527.000000
3899.007568 -13.000000
3899.940430 559.000000
3900.872559 752.000000
3901.804443 331.000000
3902.735840 87.000000
3903.666992 -157.000000
3904.597656 44.000000
3905.527832 48.000000
3906.457520 53.000000
3907.386963 76.000000
3908.316162 418.000000
3909.244629 -126.000000
3910.173096 -243.000000
3911.100830 -360.000000
3912.028320 -231.000000
3912.955322 -103.000000
3913.881836 -298.000000
3914.808105 -352.000000
3915.733887 -352.000000
3916.659424 -11.000000
3917.584473 -113.000000
3918.509033 -104.000000
3919.433350 191.000000
3920.357178 163.000000
3921.280762 -22.000000
3922.203613 -463.000000
3923.126221 412.000000
3924.048584 -511.000000
3924.970459 -119.000000
3925.891846 -22.000000
3926.812988 -59.000000
3927.733643 -96.000000
3928.653809 -303.000000
3929.573730 -266.000000
3930.493164 -230.000000
3931.412109 27.000000
3932.330811 92.000000
3933.249023 134.000000
3934.166992 231.000000
3935.084473 -101.000000
3936.001465 -196.000000
3936.918213 -292.000000
3937.834473 -241.000000
3938.750244 -190.000000
3939.665771 204.000000
3940.580811 69.000000
3941.495605 121.000000
3942.409668 -51.000000
3943.323730 -382.000000
3944.237061 -247.000000
3945.150146 -378.000000
3946.062988 -182.000000
3946.975098 -248.000000
3947.887207 -121.000000
3948.798584 429.000000
3949.709717 979.000000
3950.620361 497.000000
3951.530762 274.000000
3952.440674 51.000000
3953.350098 577.000000
3954.259277 502.000000
3955.167969 80.000000
3956.076416 357.000000
3956.984375 552.000000
3957.891846 748.000000
3958.799072 418.000000
3959.705811 89.000000
3960.612061 419.000000
3961.518066 343.000000
3962.423584 -442.000000
3963.328857 152.000000
3964.233398 -169.000000
3965.137939 -203.000000
3966.041992 -127.000000
3966.945557 -30.000000
3967.848633 66.000000
3968.751465 66.000000
3969.653809 -473.000000
3970.555908 -431.000000
3971.457520 -389.000000
3972.358643 -232.000000
3973.259521 379.000000
3974.159912 75.000000
3975.060059 261.000000
3975.959473 -71.000000
3976.858887 52.000000
3977.757568 5.000000
3978.656250 -42.000000
3979.554199 -500.000000
3980.451904 -538.000000
3981.349121 -576.000000
3982.246094 -314.000000
3983.142578 300.000000
3984.038574 333.000000
3984.934326 367.000000
3985.829590 95.000000
3986.724609 -597.000000
3987.619141 -351.000000
3988.513184 -105.000000
3989.406982 -4.000000
3990.300293 -167.000000
3991.193115 -107.000000
3992.085693 -48.000000
3992.978027 -124.000000
3993.869629 -437.000000
3994.760986 -519.000000
3995.652100 255.000000
3996.542725 -269.000000
3997.432861 -14.000000
3998.322754 -14.000000
3999.212158 -161.000000
4000.101074 -309.000000
4000.989746 -120.000000
4001.877930 -101.000000
4002.765869 -82.000000
4003.653320 -24.000000
4004.540283 339.000000
4005.427002 126.000000
4006.313232 99.000000
4007.199219 72.000000
4008.084717 257.000000
4008.969727 -126.000000
4009.854492 -375.000000
4010.738770 171.000000
4011.622803 717.000000
4012.506348 381.000000
4013.389404 46.000000
4014.272217 -736.000000
4015.154541 -446.000000
4016.036621 -409.000000
4016.918213 -373.000000
4017.799316 -373.000000
4018.680176 -487.000000
4019.560547 -662.000000
4020.440674 -837.000000
4021.320312 -572.000000
4022.199463 325.000000
4023.078369 436.000000
4023.957031 548.000000
4024.834961 160.000000
4025.712646 -227.000000
4026.590088 -659.000000
4027.466797 -833.000000
4028.343506 439.000000
4029.219482 -109.000000
4030.095215 -211.000000
4030.970703 -313.000000
4031.845703 -204.000000
4032.720215 137.000000
4033.594482 479.000000
4034.468262 499.000000
4035.341553 284.000000
4036.214600 -320.000000
4037.087158 -360.000000
4037.959473 -60.000000
4038.831299 240.000000
4039.702881 175.000000
4040.573975 100.000000
4041.444580 25.000000
4042.314941 205.000000
4043.184814 -844.000000
4044.054443 -321.000000
4044.923584 -419.000000
4045.792236 228.000000
4046.660645 -45.000000
4047.528564 -377.000000
4048.396240 173.000000
4049.263428 -196.000000
4050.130127 -100.000000
4050.996582 161.000000
4051.862793 317.000000
4052.728271 247.000000
4053.593506 -419.000000
4054.458496 520.000000
