300.00000	1302.22253
302.00000	1171.57361
304.00000	1003.36890
306.00000	820.57587
308.00000	644.98694
310.00000	491.53235
312.00000	376.84161
314.00000	318.32184
316.00000	296.14856
318.00000	262.82306
320.00000	219.02901
322.00000	186.58440
324.00000	166.40033
326.00000	160.33778
328.00000	187.67363
330.00000	158.48589
332.00000	124.05618
334.00000	140.49202
336.00000	151.07410
338.00000	197.46960
340.00000	241.91483
342.00000	246.72173
344.00000	230.25897
346.00000	220.22018
348.00000	207.23111
350.00000	177.88646
352.00000	137.51500
354.00000	107.11841
356.00000	94.66695
358.00000	104.24703
360.00000	118.86974
362.00000	106.60568
364.00000	68.06911
366.00000	56.60571
368.00000	74.10046
370.00000	80.14985
372.00000	76.70950
374.00000	100.02773
376.00000	111.79861
378.00000	95.34536
380.00000	95.49051
382.00000	63.02925
384.00000	57.99386
386.00000	92.45802
388.00000	109.27986
390.00000	119.46840
392.00000	100.90845
394.00000	80.54005
396.00000	81.65923
398.00000	69.90280
400.00000	70.95850
402.00000	91.02410
404.00000	109.36392
406.00000	107.68177
408.00000	98.24455
410.00000	94.52716
412.00000	80.58779
414.00000	62.31492
416.00000	92.50298
418.00000	98.00883
420.00000	91.99009
422.00000	107.17009
424.00000	113.69448
426.00000	108.76395
428.00000	112.79105
430.00000	115.34851
432.00000	103.01786
434.00000	115.36137
436.00000	117.01270
438.00000	99.77775
440.00000	86.32443
442.00000	81.58694
444.00000	69.01051
446.00000	81.01643
448.00000	104.16110
450.00000	88.49335
452.00000	77.40572
454.00000	58.49606
456.00000	48.97390
458.00000	72.45625
460.00000	88.80968
462.00000	73.05001
464.00000	70.12395
466.00000	96.84814
468.00000	103.49767
470.00000	90.07072
472.00000	80.55824
474.00000	84.27874
476.00000	96.84676
478.00000	115.63903
480.00000	100.67139
482.00000	79.62503
484.00000	79.37583
486.00000	73.25233
488.00000	102.50244
490.00000	96.10386
492.00000	66.34782
494.00000	82.06302
496.00000	34.52904
498.00000	75.14404
500.00000	139.81572
502.00000	97.70818
504.00000	81.47488
506.00000	79.05141
508.00000	105.16320
510.00000	130.33211
512.00000	86.69379
514.00000	64.50294
516.00000	69.92618
518.00000	70.91635
520.00000	66.98746
522.00000	82.15083
524.00000	53.75026
526.00000	38.90644
528.00000	70.66994
530.00000	63.68505
532.00000	77.69183
534.00000	79.64272
536.00000	83.82373
538.00000	121.59770
540.00000	68.42317
542.00000	60.70424
544.00000	96.88483
546.00000	96.77002
548.00000	115.55016
550.00000	117.18434
552.00000	107.59317
554.00000	105.35119
556.00000	103.52563
558.00000	104.65048
560.00000	110.80393
562.00000	120.31723
564.00000	126.74666
566.00000	123.07909
568.00000	117.96497
570.00000	116.54472
572.00000	121.69416
574.00000	136.36475
576.00000	152.63663
578.00000	166.52626
580.00000	173.43289
582.00000	171.99536
584.00000	168.49921
586.00000	139.14197
588.00000	115.62713
590.00000	132.64317
592.00000	158.76140
594.00000	179.25244
596.00000	171.48296
598.00000	147.19472
600.00000	143.33789
602.00000	143.36223
604.00000	143.98456
606.00000	136.38055
608.00000	122.12146
610.00000	128.14806
612.00000	124.38776
614.00000	129.05574
616.00000	150.52922
618.00000	153.81023
620.00000	163.11108
622.00000	159.37424
624.00000	156.26524
626.00000	182.01483
628.00000	185.72482
630.00000	153.72580
632.00000	121.44363
634.00000	115.88663
636.00000	120.75109
638.00000	136.83424
640.00000	136.75534
642.00000	120.57105
644.00000	116.64182
646.00000	107.72467
648.00000	109.40858
650.00000	117.38016
652.00000	117.87203
654.00000	123.02352
656.00000	116.28907
658.00000	103.26312
660.00000	101.45920
662.00000	113.66484
664.00000	123.86840
666.00000	113.79211
668.00000	94.43987
670.00000	92.38760
672.00000	106.52923
674.00000	116.42552
676.00000	115.58837
678.00000	106.78490
680.00000	93.89163
682.00000	99.25513
684.00000	114.19626
686.00000	110.90394
688.00000	81.20984
690.00000	61.78012
692.00000	62.76578
694.00000	72.13723
696.00000	74.43048
698.00000	63.91663
700.00000	44.13441
702.00000	39.93920
704.00000	63.65993
706.00000	92.21060
708.00000	95.56731
710.00000	103.98791
712.00000	123.79575
714.00000	142.36850
716.00000	191.79080
718.00000	267.92380
720.00000	319.91211
722.00000	329.87970
724.00000	335.96414
726.00000	309.90222
728.00000	291.91483
730.00000	287.35449
732.00000	248.50270
734.00000	188.79048
736.00000	132.27095
738.00000	116.92904
740.00000	142.30176
742.00000	145.77950
744.00000	132.08049
746.00000	116.54383
748.00000	114.87309
750.00000	127.51801
752.00000	112.44633
754.00000	101.81378
756.00000	100.14178
758.00000	87.38448
760.00000	85.76936
762.00000	65.06654
764.00000	65.08376
766.00000	96.61825
768.00000	88.16052
770.00000	74.33042
772.00000	62.26274
774.00000	65.67991
776.00000	88.97000
778.00000	74.04646
780.00000	87.70323
782.00000	100.35907
784.00000	65.98623
786.00000	54.81134
788.00000	46.14382
790.00000	51.77278
792.00000	60.86208
794.00000	40.74157
796.00000	49.04588
798.00000	63.15760
800.00000	81.17971
802.00000	101.30628
804.00000	68.17280
806.00000	75.90683
808.00000	78.83483
810.00000	47.92175
812.00000	64.97298
814.00000	36.51056
816.00000	29.02535
818.00000	54.79676
820.00000	43.87744
822.00000	42.25303
824.00000	40.67071
826.00000	33.46014
828.00000	33.24146
830.00000	40.89376
832.00000	30.61780
834.00000	39.63723
836.00000	70.93266
838.00000	76.27251
840.00000	74.45316
842.00000	59.46839
844.00000	32.68032
846.00000	21.54762
848.00000	47.58365
850.00000	52.35851
852.00000	39.40454
854.00000	37.93439
856.00000	43.52168
858.00000	51.31191
860.00000	64.71086
862.00000	74.19485
864.00000	68.71584
866.00000	58.75745
868.00000	24.24541
870.00000	22.95243
872.00000	68.62370
874.00000	65.59479
876.00000	76.17562
878.00000	97.30548
880.00000	92.55013
882.00000	71.18435
884.00000	78.57155
886.00000	43.44218
888.00000	30.41698
890.00000	84.45895
892.00000	46.04951
894.00000	58.49808
896.00000	87.08437
898.00000	79.34414
900.00000	107.85925
902.00000	116.91216
904.00000	102.95270
906.00000	86.16259
908.00000	82.65907
910.00000	106.08473
912.00000	118.16908
914.00000	108.24464
916.00000	108.08733
918.00000	135.95050
920.00000	118.37952
922.00000	78.34774
924.00000	71.07639
926.00000	87.33778
928.00000	60.15143
930.00000	68.24336
932.00000	87.42906
934.00000	68.58737
936.00000	96.58595
938.00000	136.44255
940.00000	144.83932
942.00000	118.10621
944.00000	89.99722
946.00000	100.27692
948.00000	113.59522
950.00000	105.76707
952.00000	93.73143
954.00000	96.19466
956.00000	114.72833
958.00000	116.02930
960.00000	92.57220
962.00000	86.49896
964.00000	95.73984
966.00000	120.60266
968.00000	129.86360
970.00000	103.11948
972.00000	115.67524
974.00000	162.73506
976.00000	190.27901
978.00000	173.92133
980.00000	157.66142
982.00000	176.26640
984.00000	187.98940
986.00000	163.23828
988.00000	138.57312
990.00000	148.63158
992.00000	159.08997
994.00000	134.84917
996.00000	90.16835
998.00000	78.82335
1000.00000	109.70026
1002.00000	122.67957
1004.00000	116.96626
1006.00000	159.85733
1008.00000	152.36511
1010.00000	126.89486
1012.00000	115.33289
1014.00000	98.85367
1016.00000	106.44801
1018.00000	110.29012
1020.00000	99.45173
1022.00000	87.14512
1024.00000	84.31790
1026.00000	110.70613
1028.00000	134.09026
1030.00000	133.76720
1032.00000	129.03160
1034.00000	123.57846
1036.00000	131.42804
1038.00000	158.45177
1040.00000	184.85164
1042.00000	179.73785
1044.00000	172.30385
1046.00000	172.53127
1048.00000	169.29214
1050.00000	156.91646
1052.00000	142.87617
1054.00000	151.35263
1056.00000	174.94781
1058.00000	184.44695
1060.00000	188.20532
1062.00000	218.33090
1064.00000	245.34941
1066.00000	251.11540
1068.00000	283.23438
1070.00000	308.77658
1072.00000	341.00797
1074.00000	392.46185
1076.00000	443.86981
1078.00000	496.77585
1080.00000	569.54803
1082.00000	691.28534
1084.00000	871.49176
1086.00000	1098.82507
1088.00000	1444.32874
1090.00000	1928.94629
1092.00000	2478.87280
1094.00000	2945.61035
1096.00000	3159.25391
1098.00000	2996.71484
1100.00000	2506.59692
1102.00000	1883.40222
1104.00000	1317.69092
1106.00000	929.30402
1108.00000	695.76001
1110.00000	540.76764
1112.00000	437.05643
1114.00000	370.79788
1116.00000	317.50195
1118.00000	264.33203
1120.00000	224.92834
1122.00000	218.92935
1124.00000	212.69696
1126.00000	219.84476
1128.00000	250.29861
1130.00000	241.73210
1132.00000	225.49176
1134.00000	213.16986
1136.00000	217.18681
1138.00000	245.16852
1140.00000	218.06947
1142.00000	187.17519
1144.00000	189.03183
1146.00000	196.77533
1148.00000	196.07109
1150.00000	173.52931
1152.00000	171.56390
1154.00000	210.71094
1156.00000	233.24362
1158.00000	211.95317
1160.00000	184.68448
1162.00000	190.71638
1164.00000	218.31076
1166.00000	217.32892
1168.00000	208.88115
1170.00000	207.91527
1172.00000	210.35965
1174.00000	219.24809
1176.00000	222.89714
1178.00000	206.23866
1180.00000	184.52971
1182.00000	186.27321
1184.00000	183.67827
1186.00000	178.73079
1188.00000	206.37764
1190.00000	253.04001
1192.00000	223.37227
1194.00000	188.28539
1196.00000	186.36450
1198.00000	213.47633
1200.00000	252.90686
1202.00000	219.87183
1204.00000	189.30919
1206.00000	217.48846
1208.00000	249.77916
1210.00000	232.01472
1212.00000	199.48972
1214.00000	201.08322
1216.00000	231.96384
1218.00000	241.38713
1220.00000	246.13676
1222.00000	230.32628
1224.00000	196.47203
1226.00000	193.26996
1228.00000	235.80183
1230.00000	252.66013
1232.00000	245.26622
1234.00000	257.25974
1236.00000	253.34320
1238.00000	240.46783
1240.00000	235.33250
1242.00000	224.93251
1244.00000	199.37762
1246.00000	241.81006
1248.00000	267.31918
1250.00000	236.15553
1252.00000	214.14809
1254.00000	211.70479
1256.00000	219.01071
1258.00000	227.01488
1260.00000	234.21709
1262.00000	243.87544
1264.00000	253.83348
1266.00000	260.46042
1268.00000	258.58099
1270.00000	244.43004
1272.00000	222.82907
1274.00000	204.83115
1276.00000	206.91974
1278.00000	248.02350
1280.00000	319.92218
1282.00000	318.90576
1284.00000	270.76663
1286.00000	275.42352
1288.00000	348.01523
1290.00000	358.85617
1292.00000	322.15970
1294.00000	304.45245
1296.00000	322.39780
1298.00000	334.91235
1300.00000	300.13437
1302.00000	286.70038
1304.00000	322.00305
1306.00000	292.72983
1308.00000	216.22328
1310.00000	185.93681
1312.00000	217.79027
1314.00000	222.45464
1316.00000	159.25948
1318.00000	176.42786
1320.00000	210.44675
1322.00000	168.58827
1324.00000	208.20976
1326.00000	153.13347
1328.00000	71.10372
1330.00000	77.39745
1332.00000	99.99535
1334.00000	97.78632
1336.00000	98.81399
1338.00000	87.34133
1340.00000	49.25070
1342.00000	66.56348
1344.00000	55.96936
1346.00000	53.09227
1348.00000	93.85148
1350.00000	90.18386
1352.00000	100.33471
1354.00000	96.49445
1356.00000	87.26405
1358.00000	106.45625
1360.00000	52.61923
1362.00000	55.81861
1364.00000	87.47946
1366.00000	67.78532
1368.00000	104.90587
1370.00000	108.41522
1372.00000	83.68130
1374.00000	115.15067
1376.00000	188.20764
1378.00000	112.09889
1380.00000	98.32757
1382.00000	126.04807
1384.00000	36.58827
1386.00000	49.91503
1388.00000	53.74927
1390.00000	54.85897
1392.00000	91.02087
1394.00000	76.51740
1396.00000	74.68291
1398.00000	100.76890
1400.00000	97.57006
1402.00000	57.97657
1404.00000	114.20477
1406.00000	141.89946
1408.00000	105.48412
1410.00000	107.92719
1412.00000	178.87019
1414.00000	126.50808
1416.00000	65.78947
1418.00000	89.78024
1420.00000	94.29402
1422.00000	128.27368
1424.00000	99.60559
1426.00000	58.22751
1428.00000	119.07902
1430.00000	176.76056
1432.00000	154.42375
1434.00000	140.51294
1436.00000	179.22914
1438.00000	169.80893
1440.00000	153.35237
1442.00000	148.55229
1444.00000	133.60182
1446.00000	99.57880
1448.00000	89.54942
1450.00000	94.28745
1452.00000	93.40901
1454.00000	89.18532
1456.00000	91.14391
1458.00000	57.67378
1460.00000	64.83791
1462.00000	99.75686
1464.00000	70.48628
1466.00000	105.88656
1468.00000	85.29463
1470.00000	49.10616
1472.00000	89.21167
1474.00000	42.66153
1476.00000	37.74215
1478.00000	54.18361
1480.00000	42.76607
1482.00000	67.03059
1484.00000	69.01486
1486.00000	68.63599
1488.00000	84.42524
1490.00000	87.18530
1492.00000	64.28224
1494.00000	83.09807
1496.00000	88.63828
1498.00000	48.39853
1500.00000	67.67548
1502.00000	66.23991
1504.00000	84.19563
1506.00000	118.76752
1508.00000	101.11283
1510.00000	123.71364
1512.00000	104.94370
1514.00000	73.92339
1516.00000	116.58531
1518.00000	162.11787
1520.00000	192.59692
1522.00000	162.76160
1524.00000	97.83876
1526.00000	91.79806
1528.00000	84.97510
1530.00000	82.55626
1532.00000	92.52889
1534.00000	92.60762
1536.00000	85.81992
1538.00000	124.24156
1540.00000	130.80933
1542.00000	78.73679
1544.00000	104.81230
1546.00000	146.82368
1548.00000	108.66259
1550.00000	62.11027
1552.00000	112.66100
1554.00000	82.25324
1556.00000	66.82970
1558.00000	81.80296
1560.00000	67.05795
1562.00000	78.79681
1564.00000	86.14028
1566.00000	87.83731
1568.00000	100.03762
1570.00000	122.50075
1572.00000	151.21272
1574.00000	120.48322
1576.00000	72.95573
1578.00000	86.98489
1580.00000	90.19672
1582.00000	103.50549
1584.00000	68.06858
1586.00000	15.86810
1588.00000	102.92844
1590.00000	139.56137
1592.00000	142.78632
1594.00000	186.19847
1596.00000	218.55426
1598.00000	161.10237
1600.00000	230.19872
1602.00000	314.00101
1604.00000	236.49545
1606.00000	205.62543
1608.00000	186.22604
1610.00000	199.89755
1612.00000	229.30869
1614.00000	199.32529
1616.00000	209.97620
1618.00000	193.71217
1620.00000	161.16389
1622.00000	180.08427
1624.00000	176.98306
1626.00000	171.31483
1628.00000	158.45024
1630.00000	117.76223
1632.00000	77.19990
1634.00000	108.01115
1636.00000	147.15894
1638.00000	127.27576
1640.00000	89.79420
1642.00000	129.11946
1644.00000	126.14133
1646.00000	103.43275
1648.00000	120.67512
1650.00000	91.80161
1652.00000	118.26997
1654.00000	141.05412
1656.00000	120.41154
1658.00000	125.29081
1660.00000	109.67216
1662.00000	94.77412
1664.00000	87.15556
1666.00000	71.56037
1668.00000	70.11061
1670.00000	95.93561
1672.00000	125.89180
1674.00000	132.14247
1676.00000	125.75922
1678.00000	155.09618
1680.00000	164.84311
1682.00000	138.97881
1684.00000	116.99763
1686.00000	78.53687
1688.00000	67.54446
1690.00000	99.65674
1692.00000	127.81617
1694.00000	108.03218
1696.00000	125.59834
1698.00000	144.86385
1700.00000	124.13590
1702.00000	111.36369
1704.00000	144.56363
1706.00000	140.91866
1708.00000	116.26745
1710.00000	122.30166
1712.00000	89.64000
1714.00000	74.66792
1716.00000	93.73274
1718.00000	110.54459
1720.00000	108.45104
1722.00000	131.60966
1724.00000	131.81569
1726.00000	89.82371
1728.00000	56.63174
1730.00000	60.74340
1732.00000	51.28989
1734.00000	48.87876
1736.00000	74.22784
1738.00000	71.75974
1740.00000	77.01242
1742.00000	155.81252
1744.00000	190.67711
1746.00000	88.08652
1748.00000	191.92424
1750.00000	200.53120
1752.00000	147.41542
1754.00000	235.64143
1756.00000	202.52534
1758.00000	136.78436
1760.00000	131.59538
1762.00000	150.47577
1764.00000	129.30835
1766.00000	155.28166
1768.00000	193.70654
1770.00000	186.68600
1772.00000	162.49356
1774.00000	203.97549
1776.00000	215.29694
1778.00000	180.64270
1780.00000	162.87212
1782.00000	162.77841
1784.00000	90.15150
1786.00000	143.60036
1788.00000	240.74409
1790.00000	118.58163
1792.00000	102.06154
1794.00000	106.50323
1796.00000	102.79891
1798.00000	168.84543
1800.00000	230.77249
1802.00000	169.73711
1804.00000	157.02515
1806.00000	198.77338
1808.00000	82.87787
1810.00000	83.76725
1812.00000	172.52338
1814.00000	192.46185
1816.00000	160.84814
1818.00000	253.33630
1820.00000	169.56171
1822.00000	79.85341
1824.00000	153.41582
1826.00000	111.11518
1828.00000	90.27361
1830.00000	128.73178
1832.00000	168.41170
1834.00000	168.76405
1836.00000	139.75850
1838.00000	124.69293
1840.00000	144.97133
1842.00000	190.77156
1844.00000	220.13272
1846.00000	145.77063
1848.00000	147.73976
1850.00000	198.05664
1852.00000	95.27135
1854.00000	208.39409
1856.00000	230.01381
1858.00000	161.56625
1860.00000	246.52283
1862.00000	229.71947
1864.00000	191.01393
1866.00000	224.17035
1868.00000	237.98073
1870.00000	123.93076
1872.00000	166.03813
1874.00000	206.44466
1876.00000	126.27615
1878.00000	105.34565
1880.00000	255.37549
1882.00000	244.91679
1884.00000	225.31137
1886.00000	344.10709
1888.00000	237.72969
1890.00000	300.46851
1892.00000	303.77072
1894.00000	141.16513
1896.00000	146.52419
1898.00000	137.42760
1900.00000	76.17406
1902.00000	142.85867
1904.00000	304.59921
1906.00000	170.21434
1908.00000	227.85545
1910.00000	275.32257
1912.00000	161.80565
1914.00000	283.46878
1916.00000	206.76260
1918.00000	86.32468
1920.00000	110.79629
1922.00000	156.00859
1924.00000	133.19016
1926.00000	193.34579
1928.00000	200.31213
1930.00000	132.20303
1932.00000	284.50250
1934.00000	159.87462
1936.00000	78.27658
1938.00000	170.35463
1940.00000	80.14483
1942.00000	147.72656
1944.00000	205.50946
1946.00000	157.92256
1948.00000	170.95625
1950.00000	307.42575
1952.00000	221.63306
1954.00000	137.85188
1956.00000	208.69989
1958.00000	153.35863
1960.00000	185.88608
1962.00000	215.38867
1964.00000	205.12428
1966.00000	219.19215
1968.00000	145.61716
1970.00000	174.44908
1972.00000	265.25266
1974.00000	265.02393
1976.00000	210.33730
1978.00000	165.55891
1980.00000	114.55107
1982.00000	53.15462
1984.00000	42.73071
1986.00000	129.46080
1988.00000	196.64206
1990.00000	186.71901
1992.00000	148.60793
1994.00000	131.04301
1996.00000	110.82142
1998.00000	122.71872
2000.00000	45.40430
2002.00000	43.54326
2004.00000	56.27247
2006.00000	61.03350
2008.00000	47.55796
2010.00000	38.13477
2012.00000	47.99715
2014.00000	59.42695
2016.00000	71.18580
2018.00000	87.57135
2020.00000	85.19332
2022.00000	67.29021
2024.00000	69.08369
2026.00000	90.22084
2028.00000	83.82584
2030.00000	71.98693
2032.00000	54.69817
2034.00000	60.47492
2036.00000	94.65874
2038.00000	41.86013
2040.00000	25.58613
2042.00000	60.27628
2044.00000	57.54554
2046.00000	43.02939
2048.00000	76.94021
2050.00000	110.54157
2052.00000	120.54571
2054.00000	154.53215
2056.00000	118.63155
2058.00000	76.73109
2060.00000	110.49840
2062.00000	161.02678
2064.00000	82.65886
2066.00000	86.12968
2068.00000	165.28137
2070.00000	141.52457
2072.00000	37.85793
2074.00000	40.52902
2076.00000	70.34437
2078.00000	45.52193
2080.00000	64.78043
2082.00000	112.69234
2084.00000	136.83871
2086.00000	142.62178
2088.00000	159.55438
2090.00000	152.67625
2092.00000	152.91591
2094.00000	141.87338
2096.00000	94.98723
2098.00000	66.07917
2100.00000	105.92889
2102.00000	155.81938
2104.00000	152.67599
2106.00000	114.14951
2108.00000	91.62366
2110.00000	114.52987
2112.00000	154.65474
2114.00000	157.88728
2116.00000	121.87893
2118.00000	123.04271
2120.00000	135.98462
2122.00000	118.41653
2124.00000	118.64307
2126.00000	126.82275
2128.00000	115.67703
2130.00000	119.74537
2132.00000	171.69022
2134.00000	144.91104
2136.00000	102.44212
2138.00000	102.94300
2140.00000	114.44209
2142.00000	108.25258
2144.00000	147.63168
2146.00000	161.65569
2148.00000	105.87351
2150.00000	102.39677
2152.00000	160.94289
2154.00000	142.67294
2156.00000	64.89207
2158.00000	80.47213
2160.00000	99.72732
2162.00000	107.29266
2164.00000	110.07037
2166.00000	106.90761
2168.00000	111.87561
2170.00000	125.82623
2172.00000	114.88743
2174.00000	88.49055
2176.00000	113.13747
2178.00000	157.91216
2180.00000	162.96080
2182.00000	139.68558
2184.00000	149.88815
2186.00000	178.47102
2188.00000	160.97719
2190.00000	115.39330
2192.00000	123.54254
2194.00000	190.51437
2196.00000	136.54413
2198.00000	78.42136
2200.00000	126.87037
2202.00000	140.08054
2204.00000	97.32289
2206.00000	86.12906
2208.00000	113.32382
2210.00000	119.49969
2212.00000	148.75514
2214.00000	166.86697
2216.00000	141.82968
2218.00000	112.88113
2220.00000	150.00986
2222.00000	165.20013
2224.00000	155.05719
2226.00000	167.82738
2228.00000	191.44916
2230.00000	146.76979
2232.00000	116.80239
2234.00000	140.65523
2236.00000	153.45671
2238.00000	131.48297
2240.00000	115.90105
2242.00000	129.23285
2244.00000	148.80383
2246.00000	136.46068
2248.00000	101.58191
2250.00000	103.52656
2252.00000	141.19824
2254.00000	147.87500
2256.00000	145.92880
2258.00000	148.01431
2260.00000	140.00842
2262.00000	118.87246
2264.00000	121.70747
2266.00000	133.13040
2268.00000	163.72581
2270.00000	208.28708
2272.00000	210.78781
2274.00000	191.63847
2276.00000	215.36655
2278.00000	235.01686
2280.00000	160.92891
2282.00000	143.10518
2284.00000	185.17294
2286.00000	190.46809
2288.00000	127.91906
2290.00000	112.64059
2292.00000	153.05316
2294.00000	168.12920
2296.00000	122.64522
2298.00000	101.66238
2300.00000	170.30612
2302.00000	178.85417
2304.00000	113.12525
2306.00000	141.03410
2308.00000	204.05261
2310.00000	173.67090
2312.00000	140.04677
2314.00000	204.37302
2316.00000	178.65302
2318.00000	99.83891
2320.00000	107.18594
2322.00000	193.06731
2324.00000	186.22908
2326.00000	134.29663
2328.00000	147.41136
2330.00000	230.40074
2332.00000	274.75650
2334.00000	217.14122
2336.00000	160.89917
2338.00000	134.93620
2340.00000	120.69942
2342.00000	163.78781
2344.00000	154.45357
2346.00000	137.69859
2348.00000	178.76534
2350.00000	192.29549
2352.00000	91.84063
2354.00000	85.51112
2356.00000	187.30774
2358.00000	189.27512
2360.00000	154.03844
2362.00000	213.98663
2364.00000	268.17300
2366.00000	193.44519
2368.00000	133.09740
2370.00000	162.13538
2372.00000	200.80461
2374.00000	200.06300
2376.00000	205.93216
2378.00000	159.21432
2380.00000	110.51185
2382.00000	102.22463
2384.00000	110.63027
2386.00000	126.33395
2388.00000	209.85873
2390.00000	185.83409
2392.00000	37.33068
2394.00000	131.14749
2396.00000	198.87885
2398.00000	115.63470
2400.00000	52.64421
2402.00000	159.15202
2404.00000	168.27208
2406.00000	128.22401
2408.00000	124.36287
2410.00000	117.44244
2412.00000	80.62263
2414.00000	88.71484
2416.00000	122.04543
2418.00000	106.74336
2420.00000	62.48576
2422.00000	120.89411
2424.00000	186.24100
2426.00000	159.44571
2428.00000	113.52367
2430.00000	141.49802
2432.00000	179.12881
2434.00000	161.96230
2436.00000	133.66786
2438.00000	188.40549
2440.00000	212.06386
2442.00000	169.91371
2444.00000	149.93594
2446.00000	215.59619
2448.00000	242.21973
2450.00000	223.79333
2452.00000	209.57054
2454.00000	204.99863
2456.00000	189.51358
2458.00000	185.70496
2460.00000	214.72630
2462.00000	244.24016
2464.00000	210.80649
2466.00000	199.33083
2468.00000	184.74690
2470.00000	126.60576
2472.00000	98.13153
2474.00000	143.80867
2476.00000	191.02338
2478.00000	198.75233
2480.00000	190.45049
2482.00000	152.09286
2484.00000	200.78596
2486.00000	239.52141
2488.00000	160.97731
2490.00000	164.36240
2492.00000	211.37239
2494.00000	176.58379
2496.00000	113.89813
2498.00000	192.02762
2500.00000	201.81366
2502.00000	179.83031
2504.00000	207.15393
2506.00000	240.93968
2508.00000	225.14948
2510.00000	204.24260
2512.00000	202.79298
2514.00000	206.91687
2516.00000	213.11267
2518.00000	222.77112
2520.00000	209.56049
2522.00000	184.49095
2524.00000	186.10660
2526.00000	150.40105
2528.00000	137.08255
2530.00000	160.10059
2532.00000	156.34805
2534.00000	135.27071
2536.00000	141.84819
2538.00000	208.12161
2540.00000	257.26205
2542.00000	162.42049
2544.00000	135.56389
2546.00000	123.37281
2548.00000	89.61208
2550.00000	164.02148
2552.00000	217.69142
2554.00000	188.76765
2556.00000	144.57613
2558.00000	159.82050
2560.00000	180.42387
2562.00000	191.03865
2564.00000	149.43413
2566.00000	118.29501
2568.00000	236.65053
2570.00000	214.64180
2572.00000	131.81053
2574.00000	133.08397
2576.00000	149.15054
2578.00000	145.42773
2580.00000	153.34660
2582.00000	156.07135
2584.00000	141.74361
2586.00000	190.14708
2588.00000	193.81563
2590.00000	179.47794
2592.00000	204.49179
2594.00000	193.01431
2596.00000	140.91772
2598.00000	161.79425
2600.00000	253.38615
2602.00000	270.67136
2604.00000	207.01239
2606.00000	207.57646
2608.00000	261.62109
2610.00000	254.55922
2612.00000	213.50879
2614.00000	186.55933
2616.00000	144.44643
2618.00000	126.83019
2620.00000	235.93834
2622.00000	260.32257
2624.00000	198.29227
2626.00000	179.89687
2628.00000	229.83348
2630.00000	188.63753
2632.00000	174.14833
2634.00000	200.78696
2636.00000	179.99292
2638.00000	166.39879
2640.00000	239.75818
2642.00000	263.86084
2644.00000	176.66785
2646.00000	158.60283
2648.00000	232.96068
2650.00000	195.81441
2652.00000	137.68466
2654.00000	262.79745
2656.00000	224.08667
2658.00000	127.32561
2660.00000	137.24136
2662.00000	186.70956
2664.00000	102.39530
2666.00000	125.65541
2668.00000	157.98839
2670.00000	127.67805
2672.00000	205.01988
2674.00000	192.34416
2676.00000	128.41072
2678.00000	161.98445
2680.00000	241.00819
2682.00000	85.47346
2684.00000	97.92242
2686.00000	232.66350
2688.00000	174.25406
2690.00000	67.50134
2692.00000	213.94351
2694.00000	287.56689
2696.00000	135.47528
2698.00000	143.61574
2700.00000	274.58463
2702.00000	182.31992
2704.00000	43.71590
2706.00000	176.25156
2708.00000	120.42428
2710.00000	50.87514
2712.00000	123.17456
2714.00000	201.34766
2716.00000	124.89845
2718.00000	189.13455
2720.00000	214.21004
2722.00000	143.59787
2724.00000	228.30751
2726.00000	208.53671
2728.00000	116.58406
2730.00000	107.88825
2732.00000	162.38858
2734.00000	87.16285
2736.00000	159.96310
2738.00000	202.85052
2740.00000	58.35924
2742.00000	86.47970
2744.00000	196.46536
2746.00000	152.90446
2748.00000	78.47307
2750.00000	232.51576
2752.00000	227.06053
2754.00000	96.25108
2756.00000	75.73491
2758.00000	183.13214
2760.00000	144.88988
2762.00000	141.17548
2764.00000	189.55957
2766.00000	179.63124
2768.00000	142.24544
2770.00000	204.44528
2772.00000	240.51662
2774.00000	165.89470
2776.00000	111.06768
2778.00000	189.38174
2780.00000	111.78165
2782.00000	82.87820
2784.00000	274.76822
2786.00000	119.98696
2788.00000	101.45409
2790.00000	245.49503
2792.00000	252.83940
2794.00000	134.14417
2796.00000	145.11830
2798.00000	166.33980
2800.00000	112.74040
2802.00000	103.85122
2804.00000	145.44763
2806.00000	103.19994
2808.00000	90.75732
2810.00000	199.05194
2812.00000	174.78163
2814.00000	110.11314
2816.00000	140.00523
2818.00000	204.90146
2820.00000	149.30528
2822.00000	127.54351
2824.00000	186.29971
2826.00000	178.06844
2828.00000	53.41410
2830.00000	112.77422
2832.00000	99.18227
2834.00000	77.76604
2836.00000	170.57050
2838.00000	92.62239
2840.00000	80.92685
2842.00000	54.25585
2844.00000	14.28857
2846.00000	161.31067
2848.00000	132.89137
2850.00000	45.76970
2852.00000	44.58372
2854.00000	71.76613
2856.00000	92.09797
2858.00000	76.73867
2860.00000	73.62978
2862.00000	127.29247
2864.00000	198.88835
2866.00000	266.73938
2868.00000	228.26276
2870.00000	149.18256
2872.00000	220.50369
2874.00000	289.17496
2876.00000	207.39372
2878.00000	126.04344
2880.00000	221.64594
2882.00000	268.35730
2884.00000	203.33458
2886.00000	216.33543
2888.00000	325.37860
2890.00000	217.03212
2892.00000	12.79348
2894.00000	141.42012
2896.00000	340.02151
2898.00000	64.06050
2900.00000	138.05672
2902.00000	232.70193
2904.00000	175.29855
2906.00000	181.76680
2908.00000	121.88905
2910.00000	130.84337
2912.00000	181.88698
2914.00000	167.43936
2916.00000	123.78813
2918.00000	140.53856
2920.00000	157.06401
2922.00000	105.88290
2924.00000	59.61753
2926.00000	171.01088
2928.00000	230.34656
2930.00000	187.11436
2932.00000	160.20215
2934.00000	150.18968
2936.00000	230.08208
2938.00000	167.41722
2940.00000	47.54352
2942.00000	264.57852
2944.00000	128.63377
2946.00000	161.78661
2948.00000	346.94910
2950.00000	100.80930
2952.00000	233.31982
2954.00000	380.74493
2956.00000	305.82233
2958.00000	259.35300
2960.00000	356.03299
2962.00000	250.95978
2964.00000	119.15496
2966.00000	268.18546
2968.00000	517.95093
2970.00000	357.14526
2972.00000	202.09778
2974.00000	339.44626
2976.00000	417.17328
2978.00000	148.06882
2980.00000	204.97238
2982.00000	334.55356
2984.00000	111.65587
2986.00000	172.46471
2988.00000	344.08078
2990.00000	342.22623
2992.00000	174.01419
2994.00000	128.16347
2996.00000	392.08170
2998.00000	442.74860
3000.00000	205.34012
3002.00000	143.46536
3004.00000	262.84973
3006.00000	145.02507
3008.00000	30.51495
3010.00000	213.58182
3012.00000	291.29874
3014.00000	242.85226
3016.00000	182.64842
3018.00000	146.54364
3020.00000	121.15142
3022.00000	201.89270
3024.00000	112.40572
3026.00000	19.29164
3028.00000	176.21281
3030.00000	107.13136
3032.00000	179.33838
3034.00000	314.08942
3036.00000	201.01068
3038.00000	26.57935
3040.00000	167.91580
3042.00000	302.74432
3044.00000	149.76875
3046.00000	-5.64710
3048.00000	180.04900
3050.00000	239.38538
3052.00000	225.13977
3054.00000	428.08624
3056.00000	377.35944
3058.00000	363.51700
3060.00000	366.67148
3062.00000	196.12592
3064.00000	45.52266
3066.00000	291.96649
3068.00000	298.02979
3070.00000	129.36755
3072.00000	471.21353
3074.00000	460.58914
3076.00000	336.64139
3078.00000	353.31229
3080.00000	403.17749
3082.00000	422.50519
3084.00000	192.48700
3086.00000	12.30042
3088.00000	122.31339
3090.00000	277.35248
3092.00000	464.41443
3094.00000	449.14737
3096.00000	431.21674
3098.00000	624.07373
3100.00000	265.45172
3102.00000	397.37091
3104.00000	516.25751
3106.00000	0.85442
3108.00000	397.23871
3110.00000	502.05972
3112.00000	427.39520
3114.00000	573.25983
3116.00000	424.53900
3118.00000	471.58823
3120.00000	389.79828
3122.00000	335.77280
3124.00000	643.07776
3126.00000	321.91537
3128.00000	229.82913
3130.00000	522.53369
3132.00000	595.89893
3134.00000	468.44901
3136.00000	539.13477
3138.00000	691.94604
3140.00000	594.95441
3142.00000	294.50241
3144.00000	314.57556
3146.00000	360.88641
3148.00000	322.68207
3150.00000	470.39893
3152.00000	667.87952
3154.00000	594.26715
3156.00000	519.32111
3158.00000	547.44373
3160.00000	198.94402
3162.00000	300.13281
3164.00000	275.94781
3166.00000	9.56387
3168.00000	411.78061
3170.00000	696.24329
3172.00000	663.54327
3174.00000	540.99036
3176.00000	464.06888
3178.00000	343.63907
3180.00000	337.11584
3182.00000	377.03717
3184.00000	220.73720
3186.00000	-23.12681
3188.00000	500.97040
3190.00000	571.35809
3192.00000	166.62773
3194.00000	695.92267
3196.00000	560.22424
3198.00000	99.57325
3200.00000	170.01961
