357.808838 44264.000000
360.079224 44759.000000
362.348755 45162.000000
364.617432 45481.000000
366.885254 44824.000000
369.152222 43725.000000
371.418365 43693.000000
373.683624 44518.000000
375.948059 45581.000000
378.211670 46007.000000
380.474396 47594.000000
382.736298 49621.000000
384.997345 51031.000000
387.257538 52911.000000
389.516907 52754.000000
391.775421 52334.000000
394.033112 51837.000000
396.289917 52030.000000
398.545898 50629.000000
400.801056 50807.000000
403.055359 51773.000000
405.308807 52831.000000
407.561401 53740.000000
409.813171 54927.000000
412.064117 56616.000000
414.314209 56709.000000
416.563446 56539.000000
418.811859 55939.000000
421.059418 54506.000000
423.306152 53210.000000
425.552032 51079.000000
427.797089 49336.000000
430.041290 48521.000000
432.284668 47958.000000
434.527222 47595.000000
436.768921 46915.000000
439.009766 46599.000000
441.249786 46377.000000
443.488983 46732.000000
445.727325 46727.000000
447.964844 46740.000000
450.201538 47475.000000
452.437378 46435.000000
454.672363 45380.000000
456.906555 45425.000000
459.139893 46009.000000
461.372406 45677.000000
463.604065 46601.000000
465.834930 46647.000000
468.064911 46435.000000
470.294098 47160.000000
472.522430 48011.000000
474.749969 49954.000000
476.976624 50134.000000
479.202484 50659.000000
481.427521 51164.000000
483.651703 50668.000000
485.875061 50202.000000
488.097595 49138.000000
490.319275 49962.000000
492.540161 49625.000000
494.760193 49339.000000
496.979431 48225.000000
499.197815 49025.000000
501.415375 49091.000000
503.632111 49517.000000
505.847992 49360.000000
508.063080 48867.000000
510.277344 51020.000000
512.490784 53013.000000
514.703369 53557.000000
516.915161 52661.000000
519.126099 50362.000000
521.336243 46989.000000
523.545532 45300.000000
525.754028 43388.000000
527.961670 42239.000000
530.168518 42031.000000
532.374512 42360.000000
534.579712 41573.000000
536.784058 42692.000000
538.987610 41896.000000
541.190369 41864.000000
543.392273 41640.000000
545.593323 41293.000000
547.793579 41790.000000
549.993042 40874.000000
552.191650 41693.000000
554.389465 41087.000000
556.586426 42030.000000
558.782593 41420.000000
560.977966 41536.000000
563.172485 42449.000000
565.366211 41710.000000
567.559082 41568.000000
569.751160 41502.000000
571.942444 40727.000000
574.132874 41399.000000
576.322510 41728.000000
578.511353 40410.000000
580.699341 41395.000000
582.886536 41230.000000
585.072876 41077.000000
587.258423 40699.000000
589.443176 41475.000000
591.627136 40776.000000
593.810242 40467.000000
595.992554 41538.000000
598.174011 40527.000000
600.354675 41057.000000
602.534546 42287.000000
604.713623 41736.000000
606.891846 41941.000000
609.069275 41576.000000
611.245911 40860.000000
613.421753 41695.000000
615.596741 41663.000000
617.770935 41764.000000
619.944336 41569.000000
622.116882 41475.000000
624.288635 41091.000000
626.459595 41244.000000
628.629761 41741.000000
630.799072 41184.000000
632.967651 41264.000000
635.135376 41509.000000
637.302307 40915.000000
639.468384 41472.000000
641.633728 41320.000000
643.798218 40564.000000
645.961914 41037.000000
648.124817 40536.000000
650.286926 40897.000000
652.448181 40775.000000
654.608643 41039.000000
656.768372 40879.000000
658.927246 40876.000000
661.085327 40623.000000
663.242554 40309.000000
665.399048 41084.000000
667.554688 40535.000000
669.709595 40275.000000
671.863647 41165.000000
674.016907 40204.000000
676.169373 41207.000000
678.321045 41367.000000
680.471863 41246.000000
682.621948 40823.000000
684.771179 41245.000000
686.919678 41515.000000
689.067322 41438.000000
691.214233 40779.000000
693.360291 40972.000000
695.505554 40548.000000
697.650024 41728.000000
699.793701 41826.000000
701.936584 41154.000000
704.078674 41949.000000
706.219971 41807.000000
708.360474 42151.000000
710.500122 42021.000000
712.639038 42187.000000
714.777161 42534.000000
716.914490 42173.000000
719.050964 42264.000000
721.186707 41692.000000
723.321655 42211.000000
725.455811 42018.000000
727.589111 42166.000000
729.721680 41907.000000
731.853455 42098.000000
733.984436 41332.000000
736.114624 41501.000000
738.243958 42432.000000
740.372559 41734.000000
742.500366 41173.000000
744.627380 41189.000000
746.753662 41347.000000
748.879089 40573.000000
751.003723 40498.000000
753.127563 40991.000000
755.250671 41214.000000
757.372925 39718.000000
759.494446 40644.000000
761.615112 41226.000000
763.735046 40671.000000
765.854187 40915.000000
767.972534 40094.000000
770.090088 41364.000000
772.206848 41256.000000
774.322876 41845.000000
776.438049 41075.000000
778.552490 40940.000000
780.666138 41236.000000
782.778931 40403.000000
784.891052 40866.000000
787.002319 40971.000000
789.112793 41983.000000
791.222534 41932.000000
793.331421 41937.000000
795.439575 41541.000000
797.546936 41362.000000
799.653564 42082.000000
801.759338 41692.000000
803.864380 41308.000000
805.968628 41085.000000
808.072083 41638.000000
810.174744 41967.000000
812.276672 41982.000000
814.377747 41998.000000
816.478088 41702.000000
818.577698 41776.000000
820.676453 41283.000000
822.774475 41676.000000
824.871704 41615.000000
826.968140 41375.000000
829.063843 40165.000000
831.158691 41711.000000
833.252808 41561.000000
835.346191 41431.000000
837.438721 40862.000000
839.530518 41138.000000
841.621521 41196.000000
843.711792 40705.000000
845.801270 41124.000000
847.889954 41242.000000
849.977844 41047.000000
852.065002 41325.000000
854.151367 41047.000000
856.236938 41065.000000
858.321777 41556.000000
860.405823 41444.000000
862.489075 41935.000000
864.571594 40918.000000
866.653320 41076.000000
868.734314 41337.000000
870.814453 41937.000000
872.893921 40984.000000
874.972534 41042.000000
877.050415 41482.000000
879.127502 41585.000000
881.203857 41815.000000
883.279419 41639.000000
885.354248 40649.000000
887.428284 42105.000000
889.501526 41161.000000
891.574036 41943.000000
893.645752 41894.000000
895.716675 41222.000000
897.786865 41416.000000
899.856323 42368.000000
901.924988 42406.000000
903.992859 41910.000000
906.059998 41819.000000
908.126343 41838.000000
910.191956 41419.000000
912.256775 41295.000000
914.320862 41731.000000
916.384155 41695.000000
918.446655 42453.000000
920.508423 42367.000000
922.569458 41351.000000
924.629700 41637.000000
926.689209 41611.000000
928.747925 41337.000000
930.805847 41874.000000
932.863037 41487.000000
934.919495 41216.000000
936.975159 41009.000000
939.030090 41641.000000
941.084229 41063.000000
943.137634 41030.000000
945.190247 40748.000000
947.242126 41405.000000
949.293213 40934.000000
951.343567 40476.000000
953.393188 41136.000000
955.442017 41355.000000
957.490051 40351.000000
959.537415 40983.000000
961.583984 41073.000000
963.629761 40888.000000
965.674805 40866.000000
967.719116 41130.000000
969.762634 40807.000000
971.805420 41011.000000
973.847412 40681.000000
975.888672 41146.000000
977.929199 40779.000000
979.968933 41358.000000
982.007935 41098.000000
984.046204 41542.000000
986.083679 41974.000000
988.120422 41896.000000
990.156372 41391.000000
992.191650 41582.000000
994.226074 41159.000000
996.259827 41185.000000
998.292786 41483.000000
1000.325012 40329.000000
1002.356506 41345.000000
1004.387207 41308.000000
1006.417175 40975.000000
1008.446411 40738.000000
1010.474854 41270.000000
1012.502563 42286.000000
1014.529541 41860.000000
1016.555725 41327.000000
1018.581177 41973.000000
1020.605896 41705.000000
1022.629883 41569.000000
1024.653076 41981.000000
1026.675537 41745.000000
1028.697266 41432.000000
1030.718262 41195.000000
1032.738525 42317.000000
1034.757935 42143.000000
1036.776733 41310.000000
1038.794678 41622.000000
1040.811890 41420.000000
1042.828369 41898.000000
1044.844116 41780.000000
1046.859131 41487.000000
1048.873413 40779.000000
1050.886963 42054.000000
1052.899780 41201.000000
1054.911743 42680.000000
1056.922974 41063.000000
1058.933594 42397.000000
1060.943359 41217.000000
1062.952393 41822.000000
1064.960693 41621.000000
1066.968262 41310.000000
1068.975098 42057.000000
1070.981201 41468.000000
1072.986572 41475.000000
1074.991089 42000.000000
1076.994995 41668.000000
1078.998169 42279.000000
1081.000488 41375.000000
1083.002197 41497.000000
1085.003052 41700.000000
1087.003174 42242.000000
1089.002686 41195.000000
1091.001343 41693.000000
1092.999268 41921.000000
1094.996460 42119.000000
1096.992920 41442.000000
1098.988647 41476.000000
1100.983643 41490.000000
1102.977905 42299.000000
1104.971436 42071.000000
1106.964233 41889.000000
1108.956299 41113.000000
1110.947510 42266.000000
1112.938110 42839.000000
1114.927979 42029.000000
1116.917114 41935.000000
1118.905396 42514.000000
1120.893066 41644.000000
1122.880005 42263.000000
1124.866211 41913.000000
1126.851562 42093.000000
1128.836304 41512.000000
1130.820312 42481.000000
1132.803467 41273.000000
1134.786011 41867.000000
1136.767822 41563.000000
1138.748779 41699.000000
1140.729126 41534.000000
1142.708740 42106.000000
1144.687500 42273.000000
1146.665649 41517.000000
1148.643066 42378.000000
1150.619629 41910.000000
1152.595581 43039.000000
1154.570801 42400.000000
1156.545288 42055.000000
1158.519043 41267.000000
1160.491943 41408.000000
1162.464233 42029.000000
1164.435791 42811.000000
1166.406616 41512.000000
1168.376709 41582.000000
1170.346069 42288.000000
1172.314697 41906.000000
1174.282593 42209.000000
1176.249878 42510.000000
1178.216309 42533.000000
1180.182007 42223.000000
1182.146973 43072.000000
1184.111328 43277.000000
1186.074829 42198.000000
1188.037720 42295.000000
1189.999756 42318.000000
1191.961182 42558.000000
1193.921875 42456.000000
1195.881836 41910.000000
1197.840942 42946.000000
1199.799438 42469.000000
1201.757202 42349.000000
1203.714355 41919.000000
1205.670654 42228.000000
1207.626221 42465.000000
1209.581055 42433.000000
1211.535278 43054.000000
1213.488647 42697.000000
1215.441406 42710.000000
1217.393433 42776.000000
1219.344727 42759.000000
1221.295166 42359.000000
1223.244995 42688.000000
1225.194214 42701.000000
1227.142578 42482.000000
1229.090210 43545.000000
1231.037231 42802.000000
1232.983398 43128.000000
1234.928955 43590.000000
1236.873779 42466.000000
1238.817871 42435.000000
1240.761230 42111.000000
1242.703857 42927.000000
1244.645752 42422.000000
1246.587036 42355.000000
1248.527466 42326.000000
1250.467285 42864.000000
1252.406372 42726.000000
1254.344727 42241.000000
1256.282349 43063.000000
1258.219238 41880.000000
1260.155518 42636.000000
1262.090942 41938.000000
1264.025757 42398.000000
1265.959839 41788.000000
1267.893188 42486.000000
1269.825806 42506.000000
1271.757812 42498.000000
1273.688965 41811.000000
1275.619507 42171.000000
1277.549316 42508.000000
1279.478394 42180.000000
1281.406738 43064.000000
1283.334351 41818.000000
1285.261353 42551.000000
1287.187622 42910.000000
1289.113159 42319.000000
1291.037964 42256.000000
1292.962036 42941.000000
1294.885376 41879.000000
1296.808105 42639.000000
1298.730103 42800.000000
1300.651367 42165.000000
1302.571899 42572.000000
1304.491821 43174.000000
1306.410889 42859.000000
1308.329346 42548.000000
1310.247070 43090.000000
1312.164062 42855.000000
1314.080444 44252.000000
1315.995972 42750.000000
1317.910889 43645.000000
1319.825073 43252.000000
1321.738647 43368.000000
1323.651367 42737.000000
1325.563477 43463.000000
1327.474854 41896.000000
1329.385498 43376.000000
1331.295532 43894.000000
1333.204712 42350.000000
1335.113281 42888.000000
1337.021118 43715.000000
1338.928345 43355.000000
1340.834717 42767.000000
1342.740479 42666.000000
1344.645508 43403.000000
1346.549927 42996.000000
1348.453491 42789.000000
1350.356445 42574.000000
1352.258667 44206.000000
1354.160156 43461.000000
1356.061035 42712.000000
1357.961182 42566.000000
1359.860596 43542.000000
1361.759399 43063.000000
1363.657349 43178.000000
1365.554688 43554.000000
1367.451294 43282.000000
1369.347290 43827.000000
1371.242554 43436.000000
1373.137085 43125.000000
1375.030884 43289.000000
1376.923950 43329.000000
1378.816406 42994.000000
1380.708252 43136.000000
1382.599243 42929.000000
1384.489624 43434.000000
1386.379272 43441.000000
1388.268188 43501.000000
1390.156494 43674.000000
1392.044067 42912.000000
1393.930908 43342.000000
1395.817017 42861.000000
1397.702515 42060.000000
1399.587280 42301.000000
1401.471436 43013.000000
1403.354858 42720.000000
1405.237549 42592.000000
1407.119507 42956.000000
1409.000854 43508.000000
1410.881470 42691.000000
1412.761353 43917.000000
1414.640625 42942.000000
1416.519165 43166.000000
1418.396973 43405.000000
1420.274170 43200.000000
1422.150635 42245.000000
1424.026367 42432.000000
1425.901489 43022.000000
1427.775879 43126.000000
1429.649536 42732.000000
1431.522583 43317.000000
1433.394897 42534.000000
1435.266479 42609.000000
1437.137451 41883.000000
1439.007690 42882.000000
1440.877319 42960.000000
1442.746216 43088.000000
1444.614380 42760.000000
1446.481812 43817.000000
1448.348633 42059.000000
1450.214722 42389.000000
1452.080200 43183.000000
1453.944946 42614.000000
1455.809082 43244.000000
1457.672363 43126.000000
1459.535034 42547.000000
1461.397095 42942.000000
1463.258423 42272.000000
1465.119019 43366.000000
1466.979004 42869.000000
1468.838257 43214.000000
1470.696777 43218.000000
1472.554688 42008.000000
1474.411865 42654.000000
1476.268433 42919.000000
1478.124268 42980.000000
1479.979370 43513.000000
1481.833862 41873.000000
1483.687622 43015.000000
1485.540771 42938.000000
1487.393188 43027.000000
1489.244873 42217.000000
1491.095947 43454.000000
1492.946289 42587.000000
1494.796021 43131.000000
1496.645020 43003.000000
1498.493408 42507.000000
1500.341064 42895.000000
1502.187988 42964.000000
1504.034302 43126.000000
1505.879883 42794.000000
1507.724854 43774.000000
1509.569092 43030.000000
1511.412598 42387.000000
1513.255493 43211.000000
1515.097656 43857.000000
1516.939209 44075.000000
1518.780151 43633.000000
1520.620239 44156.000000
1522.459717 43261.000000
1524.298584 43575.000000
1526.136719 43488.000000
1527.974243 44154.000000
1529.811035 43385.000000
1531.647095 43222.000000
1533.482544 43316.000000
1535.317261 43502.000000
1537.151367 42751.000000
1538.984741 43341.000000
1540.817505 41945.000000
1542.649536 42676.000000
1544.480957 43210.000000
1546.311646 43015.000000
1548.141724 42276.000000
1549.971069 43692.000000
1551.799805 43666.000000
1553.627808 42364.000000
1555.455078 42700.000000
1557.281738 43114.000000
1559.107788 42981.000000
1560.933105 44018.000000
1562.757690 43758.000000
1564.581665 43767.000000
1566.405029 43089.000000
1568.227661 44040.000000
1570.049561 43538.000000
1571.870972 42872.000000
1573.691528 43054.000000
1575.511475 42917.000000
1577.330811 43364.000000
1579.149414 42938.000000
1580.967285 43601.000000
1582.784546 43435.000000
1584.601196 42845.000000
1586.417114 43022.000000
1588.232422 42753.000000
1590.046997 43609.000000
1591.860962 42597.000000
1593.674194 42910.000000
1595.486816 43368.000000
1597.298706 42849.000000
1599.109985 41907.000000
1600.920532 42821.000000
1602.730469 42768.000000
1604.539673 43236.000000
1606.348267 42558.000000
1608.156250 42748.000000
1609.963501 43602.000000
1611.770020 43077.000000
1613.576050 43421.000000
1615.381226 43166.000000
1617.185791 42641.000000
1618.989746 42369.000000
1620.793091 43121.000000
1622.595703 42421.000000
1624.397583 43565.000000
1626.198853 43511.000000
1627.999512 43487.000000
1629.799438 43397.000000
1631.598755 43042.000000
1633.397339 42193.000000
1635.195312 43245.000000
1636.992554 42278.000000
1638.789185 42769.000000
1640.585205 43591.000000
1642.380493 42090.000000
1644.175171 42584.000000
1645.969116 43139.000000
1647.762451 42669.000000
1649.555176 42964.000000
1651.347168 41871.000000
1653.138550 43011.000000
1654.929199 43175.000000
1656.719238 42843.000000
1658.508667 43484.000000
1660.297363 43579.000000
1662.085449 44250.000000
1663.872803 43356.000000
1665.659546 43777.000000
1667.445679 43735.000000
1669.231079 43249.000000
1671.015747 42265.000000
1672.799927 43276.000000
1674.583374 42959.000000
1676.366211 44162.000000
1678.148315 43449.000000
1679.929810 42919.000000
1681.710571 43961.000000
1683.490723 44115.000000
1685.270264 43582.000000
1687.049194 43019.000000
1688.827393 43449.000000
1690.604858 43165.000000
1692.381836 43081.000000
1694.157959 42542.000000
1695.933594 43036.000000
1697.708496 43237.000000
1699.482788 43295.000000
1701.256470 42970.000000
1703.029419 42905.000000
1704.801758 43025.000000
1706.573364 41915.000000
1708.344360 42740.000000
1710.114746 43755.000000
1711.884399 44612.000000
1713.653564 42583.000000
1715.421875 42987.000000
1717.189697 42289.000000
1718.956787 43321.000000
1720.723267 42602.000000
1722.489014 43260.000000
1724.254150 42786.000000
1726.018677 43020.000000
1727.782471 41822.000000
1729.545776 42556.000000
1731.308228 42779.000000
1733.070190 42936.000000
1734.831421 43007.000000
1736.592041 42211.000000
1738.351929 42731.000000
1740.111328 42342.000000
1741.869995 43140.000000
1743.627930 42032.000000
1745.385376 42560.000000
1747.142090 42170.000000
1748.898071 42313.000000
1750.653564 42917.000000
1752.408325 43209.000000
1754.162476 42889.000000
1755.915894 42971.000000
1757.668701 43065.000000
1759.420898 42528.000000
1761.172485 42546.000000
1762.923340 42523.000000
1764.673706 42790.000000
1766.423218 42266.000000
1768.172241 43201.000000
1769.920532 42575.000000
1771.668213 42323.000000
1773.415283 42226.000000
1775.161621 42742.000000
1776.907349 41687.000000
1778.652466 42780.000000
1780.396973 41307.000000
1782.140747 41787.000000
1783.883911 43292.000000
1785.626465 42128.000000
1787.368408 42399.000000
1789.109619 42216.000000
1790.850220 42865.000000
1792.590210 42414.000000
1794.329590 41487.000000
1796.068237 42076.000000
1797.806274 41663.000000
1799.543701 42109.000000
1801.280396 42164.000000
1803.016602 42547.000000
1804.752075 42843.000000
1806.486938 41392.000000
1808.221069 42732.000000
1809.954712 42018.000000
1811.687622 41960.000000
1813.419922 42096.000000
1815.151489 41529.000000
1816.882568 41943.000000
1818.612915 41443.000000
1820.342651 42549.000000
1822.071777 42068.000000
1823.800293 42059.000000
1825.528076 41485.000000
1827.255249 41910.000000
1828.981812 42077.000000
1830.707764 42016.000000
1832.432983 41217.000000
1834.157715 42161.000000
1835.881714 42687.000000
1837.605103 42176.000000
1839.327759 42130.000000
1841.049927 41108.000000
1842.771362 42221.000000
1844.492188 42321.000000
1846.212402 42660.000000
1847.932007 41323.000000
1849.650879 41538.000000
1851.369263 41682.000000
1853.086914 41762.000000
1854.803955 42211.000000
1856.520264 41388.000000
1858.236084 41706.000000
1859.951172 42224.000000
1861.665771 42137.000000
1863.379639 40800.000000
1865.092896 41207.000000
1866.805420 41997.000000
1868.517456 42015.000000
1870.228760 41823.000000
1871.939453 42172.000000
1873.649536 41165.000000
1875.359009 42035.000000
1877.067871 41561.000000
1878.776123 41056.000000
1880.483643 41449.000000
1882.190552 41351.000000
1883.896851 41888.000000
1885.602539 41831.000000
1887.307617 40053.000000
1889.012085 41963.000000
1890.715820 41409.000000
1892.418945 41029.000000
1894.121582 41950.000000
1895.823486 41149.000000
1897.524780 41330.000000
1899.225342 42338.000000
1900.925415 41800.000000
1902.624878 41477.000000
1904.323608 41261.000000
1906.021729 41487.000000
1907.719238 42107.000000
1909.416138 40521.000000
1911.112427 41870.000000
1912.808105 41065.000000
1914.503052 41539.000000
1916.197510 41608.000000
1917.891235 42034.000000
1919.584473 41879.000000
1921.276978 42398.000000
1922.968872 41186.000000
1924.660156 41520.000000
1926.350830 41688.000000
1928.040771 41662.000000
1929.730225 41552.000000
1931.418945 41406.000000
1933.107178 41461.000000
1934.794678 41372.000000
1936.481567 39954.000000
1938.167847 41286.000000
1939.853516 41156.000000
1941.538574 41461.000000
1943.223022 41250.000000
1944.906860 39272.000000
1946.590088 41566.000000
1948.272583 41146.000000
1949.954590 40101.000000
1951.635864 41410.000000
1953.316528 40775.000000
1954.996704 41523.000000
1956.676147 40999.000000
1958.354980 40752.000000
1960.033203 40462.000000
1961.710815 42123.000000
1963.387817 41353.000000
1965.064209 41720.000000
1966.739868 40794.000000
1968.415039 40643.000000
1970.089600 40465.000000
1971.763428 41542.000000
1973.436768 41015.000000
1975.109375 41013.000000
1976.781372 39662.000000
1978.452881 41430.000000
1980.123657 40681.000000
1981.793823 41148.000000
1983.463501 40861.000000
1985.132446 41446.000000
1986.800781 41780.000000
1988.468506 41768.000000
1990.135620 41119.000000
1991.802124 41673.000000
1993.468018 42212.000000
1995.133301 41510.000000
1996.797974 42514.000000
1998.461914 41435.000000
2000.125366 40662.000000
2001.788208 41301.000000
2003.450439 41310.000000
2005.112061 41452.000000
2006.772949 41234.000000
2008.433350 41106.000000
2010.093140 41088.000000
2011.752197 41409.000000
2013.410767 40563.000000
2015.068604 41108.000000
2016.725952 41595.000000
2018.382690 41504.000000
2020.038696 41673.000000
2021.694214 40418.000000
2023.348999 40958.000000
2025.003296 41168.000000
2026.656982 39673.000000
2028.309937 40768.000000
2029.962402 41575.000000
2031.614136 41109.000000
2033.265381 40771.000000
2034.915894 41426.000000
2036.565918 40238.000000
2038.215332 41397.000000
2039.864014 41445.000000
2041.512207 41523.000000
2043.159790 40923.000000
2044.806641 40165.000000
2046.453003 40923.000000
2048.098633 41639.000000
2049.743896 41208.000000
2051.388428 40893.000000
2053.032227 41345.000000
2054.675537 41631.000000
2056.318115 40838.000000
2057.960205 41708.000000
2059.601807 40756.000000
2061.242676 41031.000000
2062.882812 40822.000000
2064.522461 41386.000000
2066.161621 42074.000000
2067.800049 40102.000000
2069.437744 40290.000000
2071.074951 41244.000000
2072.711670 40519.000000
2074.347656 40629.000000
2075.983154 41059.000000
2077.617920 39363.000000
2079.252197 41106.000000
2080.885742 41091.000000
2082.518799 40553.000000
2084.151123 41361.000000
2085.782959 40324.000000
2087.414062 40140.000000
2089.044678 40973.000000
2090.674561 40850.000000
2092.303955 42109.000000
2093.932861 40818.000000
2095.561035 41631.000000
2097.188477 41079.000000
2098.815430 40905.000000
2100.441895 40596.000000
2102.067627 41328.000000
2103.692871 41205.000000
2105.317383 40590.000000
2106.941406 40731.000000
2108.564697 42034.000000
2110.187500 41661.000000
2111.809814 40968.000000
2113.431396 40694.000000
2115.052246 40847.000000
2116.672607 39888.000000
2118.292480 41290.000000
2119.911621 41543.000000
2121.530273 41051.000000
2123.148193 40747.000000
2124.765625 40621.000000
2126.382324 40972.000000
2127.998535 41055.000000
2129.614014 41672.000000
2131.229004 41621.000000
2132.843506 40423.000000
2134.457275 40233.000000
2136.070557 42196.000000
2137.683105 41090.000000
2139.295166 41138.000000
2140.906494 40954.000000
2142.517334 40614.000000
2144.127686 40947.000000
2145.737305 39537.000000
2147.346191 41018.000000
2148.954590 39540.000000
2150.562500 39856.000000
2152.169678 40773.000000
2153.776367 40765.000000
2155.382568 39729.000000
2156.988037 40979.000000
2158.592773 40427.000000
2160.197021 39497.000000
2161.800781 39934.000000
2163.403809 41323.000000
2165.006348 40797.000000
2166.608398 40832.000000
2168.209717 40605.000000
2169.810303 40861.000000
2171.410400 39183.000000
2173.010010 40522.000000
2174.608887 39905.000000
2176.207275 40791.000000
2177.805176 40157.000000
2179.402344 40652.000000
2180.998779 40475.000000
2182.594727 41565.000000
2184.190186 39854.000000
2185.784912 40901.000000
2187.379150 40842.000000
2188.972900 40931.000000
2190.565918 41769.000000
2192.158447 41515.000000
2193.750244 39878.000000
2195.341553 40286.000000
2196.932129 41031.000000
2198.522217 41045.000000
2200.111816 40494.000000
2201.700684 40473.000000
2203.289062 40122.000000
2204.876709 40848.000000
2206.463867 39161.000000
2208.050537 40137.000000
2209.636475 40826.000000
2211.221924 40787.000000
2212.806641 39599.000000
2214.390869 39877.000000
2215.974609 39780.000000
2217.557617 39489.000000
2219.140137 40493.000000
2220.721924 39664.000000
2222.303223 39762.000000
2223.883789 39347.000000
2225.464111 40294.000000
2227.043457 39646.000000
2228.622559 39486.000000
2230.200928 40233.000000
2231.778564 39496.000000
2233.355713 39699.000000
2234.932373 41333.000000
2236.508545 39532.000000
2238.083984 39711.000000
2239.658691 40338.000000
2241.232910 41068.000000
2242.806641 41179.000000
2244.379883 39639.000000
2245.952393 40321.000000
2247.524414 40406.000000
2249.095703 40394.000000
2250.666504 41094.000000
2252.236572 40748.000000
2253.806152 40394.000000
2255.375244 40196.000000
2256.943848 40652.000000
2258.511719 39650.000000
2260.078857 40103.000000
2261.645508 39513.000000
2263.211670 38589.000000
2264.777344 40439.000000
2266.342285 40746.000000
2267.906738 39496.000000
2269.470459 39248.000000
2271.033691 40211.000000
2272.596436 38780.000000
2274.158447 40385.000000
2275.719971 39371.000000
2277.280762 38379.000000
2278.841064 39229.000000
2280.400879 38671.000000
2281.959961 40375.000000
2283.518555 39804.000000
2285.076660 39890.000000
2286.634033 39159.000000
2288.190918 40243.000000
2289.747314 40334.000000
2291.302979 38451.000000
2292.858154 39989.000000
2294.412598 39349.000000
2295.966797 39879.000000
2297.520020 39121.000000
2299.072998 40273.000000
2300.625244 38341.000000
2302.176758 38825.000000
2303.728027 39357.000000
2305.278564 38711.000000
2306.828369 39825.000000
2308.377930 38386.000000
2309.926514 38141.000000
2311.474854 39237.000000
2313.022461 39397.000000
2314.569580 38916.000000
2316.115967 39154.000000
2317.662109 38699.000000
2319.207275 38083.000000
2320.752197 38344.000000
2322.296387 39289.000000
2323.840088 38581.000000
2325.383057 39559.000000
2326.925537 39030.000000
2328.467529 38073.000000
2330.008789 38217.000000
2331.549561 39234.000000
2333.089844 37848.000000
2334.629395 36868.000000
2336.168457 38555.000000
2337.707031 37555.000000
2339.244873 38738.000000
2340.782227 38622.000000
2342.319092 38894.000000
2343.855225 39068.000000
2345.390869 38407.000000
2346.926025 38095.000000
2348.460449 38490.000000
2349.994385 39285.000000
2351.527832 38501.000000
2353.060547 39486.000000
2354.592773 38361.000000
2356.124268 39491.000000
2357.655518 38918.000000
2359.186035 38323.000000
2360.715820 38923.000000
2362.245361 38291.000000
2363.774170 38009.000000
2365.302246 39234.000000
2366.830078 38742.000000
2368.357178 38476.000000
2369.883545 37895.000000
2371.409668 38383.000000
2372.935059 38496.000000
2374.459717 39241.000000
2375.984131 39114.000000
2377.507812 39045.000000
2379.031006 38599.000000
2380.553467 38714.000000
2382.075439 38146.000000
2383.596924 39320.000000
2385.117920 38621.000000
2386.638184 38484.000000
2388.157959 37758.000000
2389.677002 38689.000000
2391.195557 37943.000000
2392.713623 38184.000000
2394.231201 38054.000000
2395.748047 37260.000000
2397.264404 38388.000000
2398.780273 38096.000000
2400.295410 38094.000000
2401.810059 38068.000000
2403.324219 38255.000000
2404.837891 38012.000000
2406.350830 39108.000000
2407.863281 37815.000000
2409.375000 39047.000000
2410.886230 38418.000000
2412.396973 39049.000000
2413.907227 38106.000000
2415.416748 38567.000000
2416.925781 36764.000000
2418.434326 37737.000000
2419.942139 36833.000000
2421.449463 38073.000000
2422.956299 37609.000000
2424.462646 37967.000000
2425.968262 40682.000000
2427.473389 37163.000000
2428.978027 37182.000000
2430.481934 37710.000000
2431.985352 37780.000000
2433.488281 37001.000000
2434.990479 37882.000000
2436.492432 37030.000000
2437.993408 38225.000000
2439.494141 36994.000000
2440.994141 37408.000000
2442.493652 35820.000000
2443.992676 38924.000000
2445.491211 37022.000000
2446.989014 37554.000000
2448.486328 37616.000000
2449.982910 37873.000000
2451.479248 36723.000000
2452.974854 38502.000000
2454.469971 36601.000000
2455.964355 37336.000000
2457.458252 39555.000000
2458.951660 38411.000000
2460.444580 37622.000000
2461.936768 37754.000000
2463.428467 38520.000000
2464.919678 37741.000000
2466.410400 37874.000000
2467.900391 37597.000000
2469.389893 37880.000000
2470.878906 36361.000000
2472.367188 37789.000000
2473.854980 35984.000000
2475.342285 37533.000000
2476.829102 37035.000000
2478.315186 37869.000000
2479.800781 37694.000000
2481.285889 35997.000000
2482.770508 36446.000000
2484.254395 38109.000000
2485.737793 37094.000000
2487.220703 37087.000000
2488.702881 37682.000000
2490.184570 37780.000000
2491.665771 36916.000000
2493.146484 36826.000000
2494.626465 37621.000000
2496.106201 37294.000000
2497.585205 37627.000000
2499.063477 36315.000000
2500.541504 37428.000000
2502.018799 37512.000000
2503.495605 36877.000000
2504.971680 37140.000000
2506.447510 36276.000000
2507.922607 37496.000000
2509.397217 36489.000000
2510.871094 37427.000000
2512.344727 37740.000000
2513.817627 37865.000000
2515.290039 37913.000000
2516.761719 36884.000000
2518.233154 37449.000000
2519.703857 36830.000000
2521.174072 37237.000000
2522.643555 36716.000000
2524.112793 36966.000000
2525.581299 36613.000000
2527.049316 37273.000000
2528.516602 38646.000000
2529.983643 36812.000000
2531.449951 36046.000000
2532.915771 37902.000000
2534.380859 36930.000000
2535.845703 36731.000000
2537.309814 36460.000000
2538.773438 36964.000000
2540.236328 36719.000000
2541.698975 37471.000000
2543.160889 36198.000000
2544.622314 37751.000000
2546.083252 37110.000000
2547.543457 36817.000000
2549.003418 36292.000000
2550.462646 36775.000000
2551.921143 37329.000000
2553.379395 35787.000000
2554.836914 36679.000000
2556.294189 34915.000000
2557.750488 36665.000000
2559.206543 36178.000000
2560.661865 35699.000000
2562.116943 37198.000000
2563.571289 36129.000000
2565.024902 36170.000000
2566.478271 37000.000000
2567.930908 37580.000000
2569.383057 36769.000000
2570.834717 36425.000000
2572.285889 37060.000000
2573.736328 35949.000000
2575.186279 36385.000000
2576.635742 35383.000000
2578.084717 36217.000000
2579.532959 36768.000000
2580.980957 36523.000000
2582.428223 36850.000000
2583.875000 35879.000000
2585.321045 37342.000000
2586.766846 35923.000000
2588.211914 37257.000000
2589.656494 36048.000000
2591.100586 37112.000000
2592.543945 35964.000000
2593.987061 37026.000000
2595.429443 35491.000000
2596.871338 36356.000000
2598.312500 37376.000000
2599.753418 36652.000000
2601.193604 35430.000000
2602.633301 35519.000000
2604.072510 35304.000000
2605.511230 37109.000000
2606.949219 36085.000000
2608.386963 37044.000000
2609.823975 35834.000000
2611.260498 36264.000000
2612.696289 36120.000000
2614.131836 36479.000000
2615.566650 36627.000000
2617.000977 36248.000000
2618.434814 34939.000000
2619.867920 37700.000000
2621.300781 36498.000000
2622.732910 36043.000000
2624.164551 36618.000000
2625.595703 35563.000000
2627.026367 36194.000000
2628.456299 35937.000000
2629.885742 36380.000000
2631.314697 36686.000000
2632.743164 36185.000000
2634.171143 36446.000000
2635.598389 35422.000000
2637.025391 36425.000000
2638.451660 36796.000000
2639.877441 35873.000000
2641.302490 35481.000000
2642.727295 35754.000000
2644.151367 36170.000000
2645.575195 37416.000000
2646.998047 35736.000000
2648.420654 36746.000000
2649.842773 36242.000000
2651.264160 35780.000000
2652.685303 35687.000000
2654.105713 35591.000000
2655.525391 37017.000000
2656.944824 35604.000000
2658.363770 36252.000000
2659.781982 36842.000000
2661.199707 36779.000000
2662.616943 36711.000000
2664.033691 36599.000000
2665.449707 36065.000000
2666.865479 36034.000000
2668.280518 36232.000000
2669.695068 35880.000000
2671.109131 35484.000000
2672.522705 36760.000000
2673.935547 35626.000000
2675.348145 36036.000000
2676.760010 35726.000000
2678.171387 35778.000000
2679.582275 36594.000000
2680.992432 35476.000000
2682.402344 36183.000000
2683.811523 37293.000000
2685.220459 35778.000000
2686.628662 35884.000000
2688.036133 37556.000000
2689.443359 36003.000000
2690.850098 34794.000000
2692.256104 35740.000000
2693.661621 34552.000000
2695.066650 36281.000000
2696.471191 36269.000000
2697.875244 35310.000000
2699.278564 35001.000000
2700.681641 35306.000000
2702.083984 36090.000000
2703.485840 36845.000000
2704.887207 35883.000000
2706.287842 35116.000000
2707.688232 35370.000000
2709.087891 35569.000000
2710.487305 36208.000000
2711.885986 35811.000000
2713.284180 36757.000000
2714.681885 34585.000000
2716.078857 35752.000000
2717.475586 35110.000000
2718.871582 36389.000000
2720.267090 35408.000000
2721.662109 36809.000000
2723.056641 35287.000000
2724.450684 35462.000000
2725.844238 36007.000000
2727.237061 34451.000000
2728.629395 35423.000000
2730.021240 35007.000000
2731.412598 35671.000000
2732.803467 35207.000000
2734.193848 36192.000000
2735.583740 35614.000000
2736.972900 35008.000000
2738.361572 35400.000000
2739.749756 35203.000000
2741.137451 34843.000000
2742.524658 36577.000000
2743.911377 34910.000000
2745.297363 36427.000000
2746.683105 36666.000000
2748.068115 36592.000000
2749.452637 36498.000000
2750.836670 35526.000000
2752.220215 36101.000000
2753.603271 36483.000000
2754.985840 35630.000000
2756.367676 35949.000000
2757.749023 35476.000000
2759.130127 36383.000000
2760.510498 36074.000000
2761.890381 34107.000000
2763.269531 35738.000000
2764.648438 36472.000000
2766.026855 35968.000000
2767.404541 35650.000000
2768.781738 36991.000000
2770.158691 36312.000000
2771.534912 35383.000000
2772.910645 36061.000000
2774.285645 36665.000000
2775.660400 35775.000000
2777.034668 36280.000000
2778.408203 34846.000000
2779.781250 35689.000000
2781.153809 37375.000000
2782.525879 35294.000000
2783.897461 36175.000000
2785.268555 35377.000000
2786.639160 35362.000000
2788.009033 35811.000000
2789.378662 35889.000000
2790.747559 35839.000000
2792.115967 35927.000000
2793.483887 35771.000000
2794.851318 36730.000000
2796.218262 34673.000000
2797.584717 36093.000000
2798.950684 34556.000000
2800.315918 35453.000000
2801.680908 35171.000000
2803.045166 35413.000000
2804.408936 35505.000000
2805.772217 35835.000000
2807.135010 35393.000000
2808.497314 37046.000000
2809.859131 35816.000000
2811.220215 35916.000000
2812.581055 35228.000000
2813.941162 36109.000000
2815.301025 35122.000000
2816.660156 35289.000000
2818.018799 34727.000000
2819.376953 34678.000000
2820.734619 35274.000000
2822.091797 34217.000000
2823.448242 36087.000000
2824.804443 34925.000000
2826.159912 36033.000000
2827.515137 36258.000000
2828.869629 34634.000000
2830.223633 36241.000000
2831.577148 34017.000000
2832.930176 35080.000000
2834.282715 35426.000000
2835.634766 35638.000000
2836.986328 35421.000000
2838.337158 34799.000000
2839.687744 35699.000000
2841.037598 33759.000000
2842.386963 35619.000000
2843.736084 35103.000000
2845.084473 36855.000000
2846.432373 34643.000000
2847.779785 33647.000000
2849.126709 34942.000000
2850.472900 34927.000000
2851.818848 34663.000000
2853.164307 35625.000000
2854.509033 35152.000000
2855.853516 35013.000000
2857.197266 35135.000000
2858.540527 35829.000000
2859.883301 34314.000000
2861.225586 35612.000000
2862.567383 35752.000000
2863.908691 34728.000000
2865.249512 36325.000000
2866.589844 33019.000000
2867.929443 35317.000000
2869.268799 35111.000000
2870.607666 35746.000000
2871.945801 35286.000000
2873.283447 35052.000000
2874.620850 34130.000000
2875.957520 36217.000000
2877.293701 33297.000000
2878.629395 35090.000000
2879.964600 34845.000000
2881.299316 34688.000000
2882.633301 34128.000000
2883.967041 35462.000000
2885.300293 34208.000000
2886.632812 34862.000000
2887.965088 34223.000000
2889.296631 35116.000000
2890.627930 34432.000000
2891.958496 35153.000000
2893.288574 35721.000000
2894.618164 35668.000000
2895.947266 34058.000000
2897.275879 35676.000000
2898.604004 34648.000000
2899.931641 34991.000000
2901.258789 34495.000000
2902.585449 35477.000000
2903.911377 33838.000000
2905.237061 35054.000000
2906.562256 35472.000000
2907.886719 35130.000000
2909.210938 35563.000000
2910.534424 35078.000000
2911.857422 33560.000000
2913.179932 35213.000000
2914.502197 33988.000000
2915.823730 35183.000000
2917.144775 33273.000000
2918.465332 34285.000000
2919.785400 34355.000000
2921.104980 35521.000000
2922.424072 35688.000000
2923.742432 34135.000000
2925.060547 35545.000000
2926.378174 35511.000000
2927.695068 34637.000000
2929.011719 34996.000000
2930.327637 35233.000000
2931.643311 36122.000000
2932.958252 35138.000000
2934.272949 33729.000000
2935.586914 35141.000000
2936.900391 36547.000000
2938.213379 33467.000000
2939.526123 33958.000000
2940.838135 34826.000000
2942.149658 33486.000000
2943.460693 34431.000000
2944.771240 34047.000000
2946.081299 35124.000000
2947.390869 35211.000000
2948.699707 34118.000000
2950.008301 34503.000000
2951.316406 34661.000000
2952.624023 34440.000000
2953.930908 33912.000000
2955.237549 32530.000000
2956.543701 35297.000000
2957.849121 34073.000000
2959.154297 33436.000000
2960.458740 34636.000000
2961.762695 35280.000000
2963.066406 34499.000000
2964.369385 34300.000000
2965.672119 35136.000000
2966.974121 33201.000000
2968.275635 33747.000000
2969.576660 35484.000000
2970.877197 34667.000000
2972.177490 33575.000000
2973.477051 33619.000000
2974.776123 34093.000000
2976.074707 33134.000000
2977.372803 34086.000000
2978.670410 33614.000000
2979.967529 34768.000000
2981.264160 35112.000000
2982.560303 35086.000000
2983.855713 35014.000000
2985.150879 34075.000000
2986.445557 33676.000000
2987.739746 34382.000000
2989.033447 31755.000000
2990.326416 34190.000000
2991.619141 34733.000000
2992.911377 34402.000000
2994.202881 33942.000000
2995.494141 34279.000000
2996.784912 33295.000000
2998.074951 34454.000000
2999.364746 34681.000000
3000.653809 33440.000000
3001.942627 34039.000000
3003.230957 35168.000000
3004.518555 34879.000000
3005.805908 34405.000000
3007.092529 32788.000000
3008.378662 35118.000000
3009.664551 33520.000000
3010.949707 33921.000000
3012.234619 34498.000000
3013.518799 34350.000000
3014.802490 33566.000000
3016.085938 34529.000000
3017.368652 34137.000000
3018.651123 33358.000000
3019.932861 33558.000000
3021.214111 33283.000000
3022.494873 32780.000000
3023.775391 33274.000000
3025.055176 32620.000000
3026.334473 34732.000000
3027.613525 33304.000000
3028.891846 32964.000000
3030.169678 32774.000000
3031.447021 33868.000000
3032.724121 33530.000000
3034.000488 34592.000000
3035.276367 32866.000000
3036.551758 34140.000000
3037.826904 34505.000000
3039.101318 34085.000000
3040.375244 34491.000000
3041.648682 32655.000000
3042.921631 33981.000000
3044.194336 34132.000000
3045.466309 34419.000000
3046.737793 34474.000000
3048.008789 34407.000000
3049.279541 34168.000000
3050.549561 33092.000000
3051.819092 33455.000000
3053.088135 35190.000000
3054.356689 34232.000000
3055.625000 35676.000000
3056.892578 34298.000000
3058.159668 33855.000000
3059.426270 33318.000000
3060.692627 34273.000000
3061.958252 32600.000000
3063.223389 33344.000000
3064.488281 35018.000000
3065.752441 34032.000000
3067.016113 35059.000000
3068.279541 34180.000000
3069.542236 33612.000000
3070.804443 33282.000000
3072.066406 32727.000000
3073.327637 34226.000000
3074.588379 33095.000000
3075.848877 33712.000000
3077.108643 32671.000000
3078.368164 34630.000000
3079.626953 33131.000000
3080.885254 32368.000000
3082.143311 31874.000000
3083.400635 33763.000000
3084.657715 31119.000000
3085.914062 35078.000000
3087.170166 34138.000000
3088.425781 34604.000000
3089.680664 34771.000000
3090.935303 34619.000000
3092.189209 34263.000000
3093.442871 32319.000000
3094.696045 33442.000000
3095.948486 34277.000000
3097.200684 34367.000000
3098.452393 34888.000000
3099.703613 34067.000000
3100.954102 34683.000000
3102.204346 32918.000000
3103.454102 34021.000000
3104.703369 33422.000000
3105.952148 34539.000000
3107.200439 33646.000000
3108.448242 31698.000000
3109.695557 32883.000000
3110.942383 33338.000000
3112.188721 33369.000000
3113.434570 31709.000000
3114.679932 34088.000000
3115.924805 29729.000000
3117.169189 31734.000000
3118.413330 33202.000000
3119.656738 33204.000000
3120.899658 33211.000000
3122.142090 31141.000000
3123.384277 33056.000000
3124.625732 32395.000000
3125.866943 31580.000000
3127.107422 33800.000000
3128.347412 32200.000000
3129.587158 32581.000000
3130.826416 31677.000000
3132.064941 31912.000000
3133.303223 32063.000000
3134.541016 32686.000000
3135.778076 33639.000000
3137.014893 31010.000000
3138.251221 33095.000000
3139.487061 30545.000000
3140.722412 32940.000000
3141.957275 31984.000000
3143.191650 33468.000000
3144.425537 32005.000000
3145.658936 32463.000000
3146.891846 32220.000000
3148.124268 30774.000000
3149.356201 32847.000000
3150.587646 32336.000000
3151.818848 32695.000000
3153.049316 33847.000000
3154.279541 31349.000000
3155.509033 30696.000000
3156.738281 33546.000000
3157.966797 32971.000000
3159.195068 30471.000000
3160.422607 30636.000000
3161.649902 33128.000000
3162.876709 33082.000000
3164.103027 32437.000000
3165.328857 32859.000000
3166.553955 30789.000000
3167.778809 32551.000000
3169.003418 31243.000000
3170.227295 33316.000000
3171.450684 32508.000000
3172.673584 33352.000000
3173.895996 32156.000000
3175.118164 31641.000000
3176.339600 32066.000000
3177.560547 31921.000000
3178.781250 32221.000000
3180.001465 31129.000000
3181.220947 33483.000000
3182.440186 31131.000000
3183.658936 31638.000000
3184.876953 33455.000000
3186.094727 31587.000000
3187.312012 31206.000000
3188.528809 31375.000000
3189.745117 32498.000000
3190.961182 33542.000000
3192.176514 32533.000000
3193.391357 30534.000000
3194.605713 31347.000000
3195.819824 31437.000000
3197.033203 32065.000000
3198.246338 33693.000000
3199.458740 30985.000000
3200.670898 31263.000000
3201.882568 32499.000000
3203.093750 32750.000000
3204.304443 32658.000000
3205.514648 30865.000000
3206.724365 31774.000000
3207.933594 31574.000000
3209.142334 32582.000000
3210.350586 31558.000000
3211.558594 31743.000000
3212.765869 30979.000000
3213.972656 31441.000000
3215.179199 32115.000000
3216.385254 33212.000000
3217.590576 33833.000000
3218.795654 32286.000000
3220.000244 32050.000000
3221.204346 32010.000000
3222.407959 31403.000000
3223.611084 33412.000000
3224.813721 31958.000000
3226.016113 32511.000000
3227.217773 32791.000000
3228.418945 31626.000000
3229.619873 32946.000000
3230.820312 33443.000000
3232.020020 32304.000000
3233.219482 32837.000000
3234.418457 31339.000000
3235.616943 32303.000000
3236.814941 31831.000000
3238.012451 32489.000000
3239.209473 32142.000000
3240.406250 31809.000000
3241.602295 32349.000000
3242.797852 30983.000000
3243.993164 31571.000000
3245.187988 32107.000000
3246.382080 31452.000000
3247.575928 32640.000000
3248.769287 32924.000000
3249.962158 33372.000000
3251.154541 29516.000000
3252.346436 31677.000000
3253.538086 31862.000000
3254.729004 31293.000000
3255.919678 30400.000000
3257.109619 31463.000000
3258.299316 32618.000000
3259.488525 29630.000000
3260.677002 31458.000000
3261.865234 31348.000000
3263.052979 30509.000000
3264.240479 30454.000000
3265.427246 31881.000000
3266.613525 33150.000000
3267.799561 30152.000000
3268.984863 31258.000000
3270.169922 29299.000000
3271.354492 29779.000000
3272.538574 30471.000000
3273.721924 29589.000000
3274.905273 31448.000000
3276.087891 30803.000000
3277.270020 30389.000000
3278.451660 31551.000000
3279.633057 31802.000000
3280.813721 31245.000000
3281.994141 30704.000000
3283.174072 30506.000000
3284.353516 29422.000000
3285.532471 29886.000000
3286.710938 29702.000000
3287.888916 30580.000000
3289.066406 30027.000000
3290.243652 31505.000000
3291.420166 31549.000000
3292.596436 29645.000000
3293.772217 31441.000000
3294.947510 30728.000000
3296.122314 29941.000000
3297.296631 29101.000000
3298.470459 31109.000000
3299.643799 29982.000000
3300.816895 30725.000000
3301.989258 29560.000000
3303.161377 30667.000000
3304.333008 30085.000000
3305.504150 30912.000000
3306.674805 30601.000000
3307.844971 30776.000000
3309.014648 30665.000000
3310.184082 29586.000000
3311.352783 31485.000000
3312.521240 30927.000000
3313.688965 28121.000000
3314.856445 30822.000000
3316.023438 30774.000000
3317.189941 30262.000000
3318.356201 31557.000000
3319.521729 30709.000000
3320.686768 29133.000000
3321.851562 28943.000000
3323.015869 32014.000000
3324.179688 30644.000000
3325.342773 31605.000000
3326.505859 31128.000000
3327.668213 29844.000000
3328.830078 32198.000000
3329.991699 29838.000000
3331.152588 29972.000000
3332.313232 31188.000000
3333.473389 30208.000000
3334.633057 31198.000000
3335.792236 29683.000000
3336.950928 29410.000000
3338.109131 30905.000000
3339.267090 29616.000000
3340.424316 30463.000000
3341.581299 29218.000000
3342.737793 30851.000000
3343.893799 29691.000000
3345.049316 29396.000000
3346.204590 29166.000000
3347.359131 28659.000000
3348.513428 30464.000000
3349.666992 28692.000000
3350.820312 29309.000000
3351.973145 30440.000000
3353.125488 30171.000000
3354.277344 28460.000000
3355.428955 31046.000000
3356.579834 30450.000000
3357.730469 29055.000000
3358.880615 28981.000000
3360.030273 29698.000000
3361.179443 29864.000000
3362.328125 28793.000000
3363.476318 30012.000000
3364.624268 32039.000000
3365.771484 30930.000000
3366.918457 30802.000000
3368.064941 29421.000000
3369.210938 31256.000000
3370.356445 30746.000000
3371.501709 28817.000000
3372.646240 29526.000000
3373.790527 29394.000000
3374.934326 30006.000000
3376.077637 30063.000000
3377.220459 30884.000000
3378.362793 29947.000000
3379.504639 30168.000000
3380.646240 30960.000000
3381.787109 30795.000000
3382.927734 30373.000000
3384.067871 30671.000000
3385.207520 28357.000000
3386.346924 30075.000000
3387.485596 29345.000000
3388.624023 30855.000000
3389.761719 29965.000000
3390.899170 29737.000000
3392.036133 29648.000000
3393.172852 31595.000000
3394.308838 31490.000000
3395.444336 31626.000000
3396.579590 30574.000000
3397.714355 30178.000000
3398.848633 30062.000000
3399.982422 29098.000000
3401.115723 30222.000000
3402.248779 28618.000000
3403.381104 30353.000000
3404.513184 31378.000000
3405.644775 31094.000000
3406.775879 29913.000000
3407.906494 30430.000000
3409.036865 29635.000000
3410.166504 30092.000000
3411.295898 29471.000000
3412.424805 29144.000000
3413.553223 29556.000000
3414.681152 29091.000000
3415.808594 30403.000000
3416.935791 31388.000000
3418.062500 28566.000000
3419.188721 31230.000000
3420.314453 28663.000000
3421.439697 28376.000000
3422.564453 30725.000000
3423.688965 30015.000000
3424.812744 30635.000000
3425.936279 29382.000000
3427.059326 28749.000000
3428.181885 30789.000000
3429.304199 32553.000000
3430.425781 30747.000000
3431.547119 31429.000000
3432.667969 28885.000000
3433.788330 30493.000000
3434.908203 29190.000000
3436.027832 29314.000000
3437.146729 29812.000000
3438.265381 31235.000000
3439.383545 29178.000000
3440.501221 28329.000000
3441.618408 28601.000000
3442.735352 29605.000000
3443.851562 29616.000000
3444.967529 29954.000000
3446.083008 28603.000000
3447.197998 30331.000000
3448.312744 29539.000000
3449.426758 30952.000000
3450.540527 28481.000000
3451.653809 29408.000000
3452.766602 29575.000000
3453.878906 29640.000000
3454.990723 30488.000000
3456.102295 29933.000000
3457.213379 28698.000000
3458.323975 29622.000000
3459.434082 29260.000000
3460.543701 29914.000000
3461.652832 28781.000000
3462.761719 28789.000000
3463.870117 29838.000000
3464.978027 30767.000000
3466.085449 27480.000000
3467.192627 29235.000000
3468.299072 30270.000000
3469.405273 30034.000000
3470.510986 28975.000000
3471.616211 30583.000000
3472.720947 28126.000000
3473.825439 29813.000000
3474.929443 26948.000000
3476.032959 28334.000000
3477.135986 27247.000000
3478.238525 30042.000000
3479.340820 30483.000000
3480.442383 30549.000000
3481.543701 29737.000000
3482.644531 30722.000000
3483.744873 29794.000000
3484.844971 30204.000000
3485.944336 29215.000000
3487.043457 28144.000000
3488.142090 28488.000000
3489.240234 30241.000000
3490.338135 28226.000000
3491.435303 28120.000000
3492.532227 28329.000000
3493.628662 30897.000000
3494.724609 27903.000000
3495.820312 26799.000000
3496.915283 29607.000000
3498.010010 27254.000000
3499.104248 30964.000000
3500.197998 28593.000000
3501.291504 29014.000000
3502.384277 29726.000000
3503.476807 29136.000000
3504.568848 28611.000000
3505.660400 28680.000000
3506.751709 28052.000000
3507.842285 29032.000000
3508.932617 29745.000000
3510.022461 28367.000000
3511.111816 27109.000000
3512.200928 31329.000000
3513.289307 26728.000000
3514.377441 30844.000000
3515.465088 29876.000000
3516.552246 29843.000000
3517.639160 29568.000000
3518.725586 29017.000000
3519.811279 28190.000000
3520.896729 28946.000000
3521.981934 29537.000000
3523.066406 28862.000000
3524.150635 29312.000000
3525.234375 29188.000000
3526.317627 28295.000000
3527.400391 29377.000000
3528.482910 27661.000000
3529.564697 29355.000000
3530.646240 29534.000000
3531.727539 29411.000000
3532.808105 27176.000000
3533.888428 29231.000000
3534.968018 29089.000000
3536.047363 27833.000000
3537.126465 28135.000000
3538.204834 29310.000000
3539.282959 28815.000000
3540.360596 30678.000000
3541.437744 29098.000000
3542.514404 30295.000000
3543.590820 28672.000000
3544.666504 28410.000000
3545.741943 28621.000000
3546.816895 27486.000000
3547.891602 28923.000000
3548.965820 27906.000000
3550.039307 27117.000000
3551.112549 27724.000000
3552.185547 26777.000000
3553.257812 29121.000000
3554.329834 29277.000000
3555.401367 28560.000000
3556.472412 27694.000000
3557.542969 27217.000000
3558.613281 26888.000000
3559.683105 30092.000000
3560.752441 28257.000000
3561.821289 28252.000000
3562.889893 30392.000000
3563.958008 29833.000000
3565.025635 27993.000000
3566.092773 29581.000000
3567.159424 29022.000000
3568.225830 30494.000000
3569.291748 26456.000000
3570.357178 29482.000000
3571.422119 28732.000000
3572.486816 29598.000000
3573.551025 28236.000000
3574.614746 26880.000000
3575.677979 29157.000000
3576.740723 28095.000000
3577.803223 27452.000000
3578.865234 28883.000000
3579.926758 27254.000000
3580.988037 27674.000000
3582.048584 27473.000000
3583.108887 29615.000000
3584.168701 29712.000000
3585.228271 28542.000000
3586.287109 26385.000000
3587.345703 29081.000000
3588.403809 28443.000000
3589.461426 28575.000000
3590.518799 29311.000000
3591.575684 28855.000000
3592.632080 29768.000000
3593.687988 29899.000000
3594.743652 27447.000000
3595.798584 28080.000000
3596.853271 28020.000000
3597.907471 27571.000000
3598.961426 26581.000000
3600.014893 29515.000000
3601.067871 28755.000000
3602.120361 28214.000000
3603.172363 28329.000000
3604.224121 27224.000000
3605.275391 26894.000000
3606.326172 25602.000000
3607.376465 27419.000000
3608.426514 27890.000000
3609.476074 27324.000000
3610.525146 28707.000000
3611.573730 28971.000000
3612.622070 27998.000000
3613.669922 28048.000000
3614.717285 29351.000000
3615.764160 27587.000000
3616.810791 29665.000000
3617.856934 28131.000000
3618.902588 27383.000000
3619.947754 28751.000000
3620.992676 27090.000000
3622.037109 26887.000000
3623.081055 27483.000000
3624.124512 29942.000000
3625.167725 29723.000000
3626.210205 26076.000000
3627.252686 28234.000000
3628.294434 26807.000000
3629.335693 28611.000000
3630.376709 28234.000000
3631.417236 30817.000000
3632.457520 28086.000000
3633.497070 27831.000000
3634.536377 27367.000000
3635.575195 27535.000000
3636.613770 27965.000000
3637.651611 26375.000000
3638.689209 28749.000000
3639.726562 26672.000000
3640.763184 27408.000000
3641.799561 25512.000000
3642.835449 29065.000000
3643.870850 26808.000000
3644.905762 28008.000000
3645.940430 28903.000000
3646.974609 26589.000000
3648.008301 27115.000000
3649.041748 30090.000000
3650.074463 27718.000000
3651.106934 29053.000000
3652.139160 27857.000000
3653.170654 27596.000000
3654.201904 29965.000000
3655.232666 31079.000000
3656.262939 26873.000000
3657.292969 27480.000000
3658.322510 24561.000000
3659.351562 27636.000000
3660.380127 26956.000000
3661.408447 26852.000000
3662.436279 27662.000000
3663.463623 28562.000000
3664.490723 28445.000000
3665.517090 29192.000000
3666.543213 26129.000000
3667.569092 26172.000000
3668.594238 27708.000000
3669.619141 26511.000000
3670.643555 28788.000000
3671.667480 28649.000000
3672.691162 27348.000000
3673.714355 28493.000000
3674.737061 29966.000000
3675.759277 23845.000000
3676.781250 29281.000000
3677.802734 26661.000000
3678.823730 27507.000000
3679.844482 29137.000000
3680.864746 28970.000000
3681.884521 27070.000000
3682.903809 29212.000000
3683.922852 27841.000000
3684.941406 28012.000000
3685.959473 28029.000000
3686.977051 27706.000000
3687.994385 29088.000000
3689.011230 28017.000000
3690.027588 27364.000000
3691.043701 28369.000000
3692.059326 27616.000000
3693.074463 29254.000000
3694.089111 28904.000000
3695.103516 30372.000000
3696.117432 27253.000000
3697.130859 28030.000000
3698.143799 28950.000000
3699.156494 29656.000000
3700.168701 27036.000000
3701.180664 28242.000000
3702.191895 28067.000000
3703.202881 26864.000000
3704.213379 29480.000000
3705.223633 28398.000000
3706.233398 25638.000000
3707.242676 28679.000000
3708.251465 25779.000000
3709.260010 27252.000000
3710.267822 27205.000000
3711.275635 28934.000000
3712.282715 27691.000000
3713.289551 28353.000000
3714.295898 27620.000000
3715.301758 26707.000000
3716.307373 27502.000000
3717.312500 28087.000000
3718.317139 26960.000000
3719.321533 28768.000000
3720.325195 26820.000000
3721.328613 27800.000000
3722.331787 27380.000000
3723.334229 27392.000000
3724.336426 25613.000000
3725.338379 28361.000000
3726.339600 27232.000000
3727.340576 27389.000000
3728.341064 27216.000000
3729.341309 28287.000000
3730.340820 28262.000000
3731.340088 28735.000000
3732.339111 27562.000000
3733.337402 28086.000000
3734.335449 27407.000000
3735.333008 29964.000000
3736.330322 28506.000000
3737.327148 26066.000000
3738.323486 27000.000000
3739.319336 29432.000000
3740.314941 27413.000000
3741.310059 26524.000000
3742.304688 26345.000000
3743.298828 30058.000000
3744.292725 29350.000000
3745.286133 26131.000000
3746.279297 25883.000000
3747.271973 28889.000000
3748.264160 26157.000000
3749.255859 28293.000000
3750.247314 32292.000000
3751.238281 28924.000000
3752.228760 26466.000000
3753.218994 25987.000000
3754.208496 26718.000000
3755.197998 27111.000000
3756.186768 27952.000000
3757.175293 26233.000000
3758.163330 29470.000000
3759.150879 27955.000000
3760.138184 29297.000000
3761.125000 26792.000000
3762.111328 28353.000000
3763.097412 30514.000000
3764.083008 27844.000000
3765.068115 25819.000000
3766.052979 24970.000000
3767.037354 24872.000000
3768.021240 26787.000000
3769.004639 27084.000000
3769.987793 25412.000000
3770.970459 27160.000000
3771.952881 29835.000000
3772.934570 24999.000000
3773.916016 26723.000000
3774.897217 26191.000000
3775.877686 26884.000000
3776.857910 25856.000000
3777.837891 25855.000000
3778.817139 29433.000000
3779.796143 27276.000000
3780.774658 27044.000000
3781.752930 28431.000000
3782.730713 27213.000000
3783.708008 28415.000000
3784.684814 28715.000000
3785.661377 27793.000000
3786.637451 26866.000000
3787.613281 27917.000000
3788.588379 26970.000000
3789.563232 29008.000000
3790.537842 27679.000000
3791.511719 27910.000000
3792.485596 27044.000000
3793.458740 26312.000000
3794.431396 27495.000000
3795.403809 26954.000000
3796.375977 27093.000000
3797.347412 27281.000000
3798.318604 25891.000000
3799.289551 26328.000000
3800.259766 27095.000000
3801.229736 25875.000000
3802.199219 26791.000000
3803.168457 28618.000000
3804.137207 28408.000000
3805.105469 25412.000000
3806.073242 27119.000000
3807.040771 26900.000000
3808.007812 27356.000000
3808.974609 27253.000000
3809.940918 27619.000000
3810.906738 28801.000000
3811.872070 25709.000000
3812.837158 25403.000000
3813.801758 25383.000000
3814.766113 29137.000000
3815.729736 27548.000000
3816.693115 27857.000000
3817.656250 27785.000000
3818.618896 27285.000000
3819.581055 27005.000000
3820.542725 25850.000000
3821.504150 27467.000000
3822.465088 27611.000000
3823.425537 26609.000000
3824.385742 28496.000000
3825.345459 26273.000000
3826.304932 29248.000000
3827.263672 25317.000000
3828.222168 25985.000000
3829.180420 27684.000000
3830.138184 28562.000000
3831.095459 28421.000000
3832.052246 29502.000000
3833.008789 28165.000000
3833.964844 26344.000000
3834.920410 26942.000000
3835.875732 26553.000000
3836.830566 27504.000000
3837.784912 26670.000000
3838.739014 27255.000000
3839.692627 24968.000000
3840.645996 26036.000000
3841.598633 26931.000000
3842.551270 27645.000000
3843.503174 26156.000000
3844.454834 27821.000000
3845.406006 24927.000000
3846.356689 26845.000000
3847.307129 27371.000000
3848.257080 27238.000000
3849.206787 25405.000000
3850.156006 27960.000000
3851.104736 26425.000000
3852.052979 28503.000000
3853.000977 27965.000000
3853.948486 26280.000000
3854.895752 26100.000000
3855.842529 27512.000000
3856.788818 27639.000000
3857.734619 24917.000000
3858.680176 27970.000000
3859.625488 26612.000000
3860.570068 28686.000000
3861.514404 25735.000000
3862.458252 25978.000000
3863.401855 27697.000000
3864.344971 28322.000000
3865.287598 30330.000000
3866.229980 27353.000000
3867.171875 28130.000000
3868.113281 28591.000000
3869.054443 22176.000000
3869.995117 25941.000000
3870.935547 27090.000000
3871.875244 25638.000000
3872.814941 26670.000000
3873.753906 24246.000000
3874.692627 25098.000000
3875.630859 29290.000000
3876.568848 24834.000000
3877.506104 28302.000000
3878.443359 24312.000000
3879.379883 25861.000000
3880.316162 27382.000000
3881.251953 26957.000000
3882.187500 27382.000000
3883.122559 28058.000000
3884.057129 27342.000000
3884.991455 28013.000000
3885.925293 28176.000000
3886.858887 28155.000000
3887.791748 28804.000000
3888.724365 26424.000000
3889.656738 26929.000000
3890.588623 27480.000000
3891.520020 26052.000000
3892.451172 30179.000000
3893.381592 28508.000000
3894.312012 23816.000000
3895.241699 27097.000000
3896.171143 26783.000000
3897.100342 28121.000000
3898.028809 25301.000000
3898.957031 27507.000000
3899.885010 25948.000000
3900.812500 26040.000000
3901.739502 26205.000000
3902.666016 26622.000000
3903.592285 28163.000000
3904.518066 28381.000000
3905.443604 26616.000000
3906.368652 26913.000000
3907.293213 27410.000000
3908.217529 27413.000000
3909.141357 27744.000000
3910.064697 27478.000000
3910.987793 26840.000000
3911.910400 27380.000000
3912.832764 26768.000000
3913.754639 26452.000000
3914.676025 29298.000000
3915.597168 25418.000000
3916.517822 25217.000000
3917.437988 26834.000000
3918.357910 27801.000000
3919.277344 27895.000000
3920.196289 26817.000000
3921.114990 25153.000000
3922.033203 27657.000000
3922.951172 26251.000000
3923.868652 27135.000000
3924.785645 25328.000000
3925.702393 28452.000000
3926.618652 27922.000000
3927.534424 29139.000000
3928.449951 26005.000000
3929.364990 27222.000000
3930.279541 24603.000000
3931.193848 26058.000000
3932.107910 29918.000000
3933.021240 27351.000000
3933.934326 26790.000000
3934.847168 27485.000000
3935.759277 26739.000000
3936.671387 28586.000000
3937.582764 29337.000000
3938.493896 26657.000000
3939.404541 26676.000000
3940.314941 26849.000000
3941.224854 28017.000000
3942.134277 29185.000000
3943.043457 27933.000000
3943.952148 27465.000000
3944.860596 27977.000000
3945.768555 25892.000000
3946.676025 26422.000000
3947.583252 27216.000000
3948.489990 26631.000000
3949.396240 26547.000000
3950.302246 27261.000000
3951.207764 27260.000000
3952.113037 29687.000000
3953.017578 26765.000000
3953.922119 27784.000000
3954.825928 27661.000000
3955.729736 27945.000000
3956.632812 25355.000000
3957.535645 28786.000000
3958.437988 28400.000000
3959.340088 26965.000000
3960.241699 29047.000000
3961.142822 28852.000000
3962.043701 25090.000000
3962.944092 25722.000000
3963.843994 29234.000000
3964.743652 28894.000000
3965.643066 26476.000000
3966.541748 27819.000000
3967.440186 27108.000000
3968.338379 27397.000000
3969.236084 27868.000000
3970.133301 28650.000000
3971.030273 25073.000000
3971.926758 27529.000000
3972.822754 26340.000000
3973.718506 27888.000000
3974.613770 26709.000000
3975.508789 29442.000000
3976.403320 26600.000000
3977.297363 28926.000000
3978.191162 28626.000000
3979.084473 25194.000000
3979.977295 29226.000000
3980.869873 24920.000000
3981.762207 26269.000000
3982.653809 27548.000000
3983.545166 26586.000000
3984.436279 25858.000000
3985.326904 24542.000000
3986.217041 28213.000000
3987.106934 26294.000000
3987.996338 27581.000000
3988.885254 29591.000000
3989.773926 28100.000000
3990.662109 27759.000000
3991.550049 25619.000000
3992.437500 26462.000000
3993.324463 26695.000000
3994.211182 29603.000000
3995.097412 26414.000000
3995.983398 24748.000000
3996.868896 27135.000000
3997.753906 28377.000000
3998.638672 28048.000000
3999.522949 26268.000000
4000.406982 28519.000000
4001.290527 27800.000000
4002.173584 28968.000000
4003.056396 26319.000000
4003.938721 27675.000000
4004.820801 27623.000000
4005.702393 27752.000000
4006.583496 26803.000000
4007.464355 27426.000000
4008.344727 25315.000000
4009.224854 28045.000000
4010.104492 26161.000000
4010.983643 26852.000000
4011.862549 26091.000000
4012.740967 28721.000000
4013.619141 24549.000000
4014.496826 27397.000000
4015.374268 28809.000000
4016.250977 28429.000000
4017.127686 28853.000000
4018.003662 27627.000000
4018.879395 27190.000000
4019.754883 28299.000000
4020.629883 25767.000000
4021.504395 28955.000000
4022.378662 27615.000000
4023.252441 29648.000000
4024.125732 27790.000000
4024.998779 25463.000000
4025.871338 30740.000000
4026.743652 26202.000000
4027.615479 29320.000000
4028.487061 30665.000000
4029.358154 27752.000000
4030.228760 29207.000000
4031.099121 26539.000000
4031.968994 28214.000000
4032.838623 25542.000000
4033.707764 30214.000000
4034.576416 26077.000000
4035.444824 28483.000000
4036.312744 26179.000000
4037.180420 25510.000000
4038.047607 28223.000000
4038.914307 24208.000000
4039.780762 25237.000000
4040.646729 24461.000000
4041.512451 27454.000000
4042.377686 25742.000000
4043.242676 25639.000000
