300.00000	418.64761
302.00000	408.59930
304.00000	408.87521
306.00000	348.74622
308.00000	243.02783
310.00000	237.67026
312.00000	304.68301
314.00000	380.72693
316.00000	371.51620
318.00000	264.51871
320.00000	315.40927
322.00000	396.35480
324.00000	423.88867
326.00000	427.92188
328.00000	356.20203
330.00000	428.44727
332.00000	522.32349
334.00000	482.64737
336.00000	447.77475
338.00000	432.90607
340.00000	449.40268
342.00000	473.51682
344.00000	456.95978
346.00000	407.40601
348.00000	361.31375
350.00000	361.96622
352.00000	428.52890
354.00000	521.18280
356.00000	538.00140
358.00000	503.48154
360.00000	489.90643
362.00000	486.90427
364.00000	396.49347
366.00000	340.88766
368.00000	360.16254
370.00000	351.46036
372.00000	267.53616
374.00000	231.86577
376.00000	230.78476
378.00000	214.54410
380.00000	235.82932
382.00000	318.21799
384.00000	346.64667
386.00000	244.26433
388.00000	100.85013
390.00000	103.72241
392.00000	189.96046
394.00000	230.13492
396.00000	175.72037
398.00000	99.97274
400.00000	120.29543
402.00000	167.96483
404.00000	169.87343
406.00000	153.88606
408.00000	125.62608
410.00000	104.35857
412.00000	98.85218
414.00000	139.25287
416.00000	246.17670
418.00000	181.00565
420.00000	98.40449
422.00000	147.50888
424.00000	157.40956
426.00000	130.66574
428.00000	204.94960
430.00000	276.46320
432.00000	191.19128
434.00000	190.03419
436.00000	225.31259
438.00000	160.57402
440.00000	70.72448
442.00000	171.97981
444.00000	199.85594
446.00000	179.69267
448.00000	218.29083
450.00000	280.70560
452.00000	325.00974
454.00000	368.04468
456.00000	501.90305
458.00000	758.25165
460.00000	999.12256
462.00000	1133.99622
464.00000	1232.38525
466.00000	1266.29980
468.00000	1109.76208
470.00000	973.07477
472.00000	890.13879
474.00000	810.11243
476.00000	729.44281
478.00000	696.16998
480.00000	706.76740
482.00000	692.47559
484.00000	621.02979
486.00000	553.21790
488.00000	526.54846
490.00000	557.56976
492.00000	585.37109
494.00000	531.67291
496.00000	452.74512
498.00000	417.70560
500.00000	413.49240
502.00000	421.49667
504.00000	461.04144
506.00000	369.35464
508.00000	296.13632
510.00000	340.02390
512.00000	355.58743
514.00000	374.93893
516.00000	380.80090
518.00000	374.91534
520.00000	372.94644
522.00000	345.93539
524.00000	349.17560
526.00000	345.80841
528.00000	332.97693
530.00000	391.82977
532.00000	395.70905
534.00000	376.18576
536.00000	368.26697
538.00000	351.34421
540.00000	375.14172
542.00000	383.03589
544.00000	387.57660
546.00000	412.37344
548.00000	396.18054
550.00000	387.96622
552.00000	400.95218
554.00000	399.77884
556.00000	372.17722
558.00000	385.25601
560.00000	389.36075
562.00000	379.50507
564.00000	401.14871
566.00000	433.24945
568.00000	441.31784
570.00000	403.53046
572.00000	352.98666
574.00000	363.72775
576.00000	431.41373
578.00000	446.48288
580.00000	404.46204
582.00000	394.21536
584.00000	397.59622
586.00000	430.62408
588.00000	442.73004
590.00000	409.08047
592.00000	403.39767
594.00000	375.43951
596.00000	337.02469
598.00000	324.09982
600.00000	348.78494
602.00000	417.40854
604.00000	417.50891
606.00000	345.62738
608.00000	329.69763
610.00000	440.11990
612.00000	520.82825
614.00000	569.19879
616.00000	598.57312
618.00000	541.53455
620.00000	524.81183
622.00000	540.24091
624.00000	555.62592
626.00000	569.93176
628.00000	549.95056
630.00000	521.02814
632.00000	495.35507
634.00000	489.50800
636.00000	535.01300
638.00000	571.31744
640.00000	562.84448
642.00000	524.39508
644.00000	493.08289
646.00000	485.58701
648.00000	499.19897
650.00000	542.94055
652.00000	582.20984
654.00000	536.18292
656.00000	529.82837
658.00000	530.12561
660.00000	513.39606
662.00000	563.02014
664.00000	580.35754
666.00000	558.20911
668.00000	526.86328
670.00000	514.60596
672.00000	555.12738
674.00000	572.10724
676.00000	533.69617
678.00000	480.17584
680.00000	470.72235
682.00000	525.26361
684.00000	525.26917
686.00000	463.93155
688.00000	465.47891
690.00000	502.87738
692.00000	497.93091
694.00000	436.03171
696.00000	374.54437
698.00000	371.62646
700.00000	399.27563
702.00000	404.92532
704.00000	371.38272
706.00000	343.25076
708.00000	403.64923
710.00000	586.14801
712.00000	618.62244
714.00000	405.44092
716.00000	490.52356
718.00000	505.37997
720.00000	449.14377
722.00000	464.63959
724.00000	383.96545
726.00000	391.79605
728.00000	432.56815
730.00000	453.28473
732.00000	484.75903
734.00000	413.91055
736.00000	353.77008
738.00000	323.20108
740.00000	321.08047
742.00000	441.65979
744.00000	433.78363
746.00000	346.93219
748.00000	295.32184
750.00000	260.49347
752.00000	324.35516
754.00000	319.21262
756.00000	261.87469
758.00000	269.18835
760.00000	226.12267
762.00000	303.95425
764.00000	328.28726
766.00000	226.11322
768.00000	292.01797
770.00000	327.57825
772.00000	252.91235
774.00000	194.67928
776.00000	235.37291
778.00000	212.55756
780.00000	323.28870
782.00000	371.77551
784.00000	206.41504
786.00000	205.91130
788.00000	176.79910
790.00000	165.71352
792.00000	272.86917
794.00000	342.56149
796.00000	160.18849
798.00000	207.75269
800.00000	339.36993
802.00000	187.78354
804.00000	236.26138
806.00000	255.72597
808.00000	206.92310
810.00000	227.64198
812.00000	285.32950
814.00000	227.30327
816.00000	217.25069
818.00000	242.16818
820.00000	160.91859
822.00000	186.77480
824.00000	202.81718
826.00000	179.16695
828.00000	182.34625
830.00000	199.08453
832.00000	232.71927
834.00000	194.64000
836.00000	162.79037
838.00000	245.34944
840.00000	131.87775
842.00000	161.21265
844.00000	269.11948
846.00000	181.41425
848.00000	167.23413
850.00000	148.00705
852.00000	130.36964
854.00000	147.03119
856.00000	133.37201
858.00000	100.08897
860.00000	102.80539
862.00000	127.96051
864.00000	118.58876
866.00000	98.26758
868.00000	121.54652
870.00000	154.03615
872.00000	127.58535
874.00000	74.57694
876.00000	150.61018
878.00000	135.68658
880.00000	57.48469
882.00000	181.62479
884.00000	210.67125
886.00000	172.59595
888.00000	98.73373
890.00000	42.09865
892.00000	178.62622
894.00000	229.09467
896.00000	196.46788
898.00000	207.19786
900.00000	226.52678
902.00000	198.77560
904.00000	190.50647
906.00000	249.15359
908.00000	309.16199
910.00000	266.16995
912.00000	243.96326
914.00000	234.14693
916.00000	199.16156
918.00000	225.40509
920.00000	280.16858
922.00000	289.16510
924.00000	211.52489
926.00000	143.91611
928.00000	286.51068
930.00000	248.45860
932.00000	115.01909
934.00000	171.47572
936.00000	201.82433
938.00000	256.88757
940.00000	295.78824
942.00000	245.23819
944.00000	173.31841
946.00000	244.42676
948.00000	212.85422
950.00000	105.80943
952.00000	151.32167
954.00000	207.72888
956.00000	247.84993
958.00000	284.43372
960.00000	272.42059
962.00000	157.46376
964.00000	93.09610
966.00000	240.79224
968.00000	331.51492
970.00000	114.33520
972.00000	164.20723
974.00000	197.11032
976.00000	193.07550
978.00000	248.88255
980.00000	108.21465
982.00000	181.81718
984.00000	294.24353
986.00000	222.43387
988.00000	154.84540
990.00000	171.74931
992.00000	208.54073
994.00000	190.02200
996.00000	169.28552
998.00000	278.34247
1000.00000	264.97733
1002.00000	247.07253
1004.00000	327.11520
1006.00000	292.36905
1008.00000	288.94006
1010.00000	255.72563
1012.00000	192.09367
1014.00000	194.93733
1016.00000	180.49643
1018.00000	196.51466
1020.00000	257.56552
1022.00000	281.98737
1024.00000	211.81024
1026.00000	229.47453
1028.00000	279.35626
1030.00000	265.25476
1032.00000	236.12531
1034.00000	243.45990
1036.00000	228.10246
1038.00000	254.64592
1040.00000	360.67136
1042.00000	346.38040
1044.00000	291.29559
1046.00000	296.09964
1048.00000	320.05875
1050.00000	282.48813
1052.00000	338.14688
1054.00000	345.21664
1056.00000	295.47314
1058.00000	344.83673
1060.00000	410.79926
1062.00000	442.73172
1064.00000	457.69431
1066.00000	501.43536
1068.00000	570.26624
1070.00000	552.15942
1072.00000	623.41144
1074.00000	833.89001
1076.00000	1013.77411
1078.00000	1238.28345
1080.00000	1545.99329
1082.00000	2032.69470
1084.00000	2633.88647
1086.00000	2932.04614
1088.00000	2750.04102
1090.00000	2274.36816
1092.00000	1698.51709
1094.00000	1128.63159
1096.00000	936.34662
1098.00000	825.22900
1100.00000	637.87952
1102.00000	546.48846
1104.00000	513.89301
1106.00000	472.00183
1108.00000	460.12521
1110.00000	429.93326
1112.00000	266.06171
1114.00000	346.87164
1116.00000	417.46085
1118.00000	366.95880
1120.00000	428.97787
1122.00000	382.30981
1124.00000	339.84998
1126.00000	360.57156
1128.00000	366.51660
1130.00000	345.70508
1132.00000	371.70703
1134.00000	401.64938
1136.00000	379.33917
1138.00000	361.87732
1140.00000	445.75171
1142.00000	453.61285
1144.00000	450.40228
1146.00000	563.82697
1148.00000	509.75824
1150.00000	500.04337
1152.00000	511.70587
1154.00000	472.27414
1156.00000	538.26855
1158.00000	599.71796
1160.00000	586.10168
1162.00000	546.56964
1164.00000	552.25525
1166.00000	554.84399
1168.00000	510.23904
1170.00000	468.29449
1172.00000	514.72607
1174.00000	611.21619
1176.00000	495.08737
1178.00000	367.04361
1180.00000	416.78592
1182.00000	479.77231
1184.00000	458.08102
1186.00000	458.65485
1188.00000	473.63684
1190.00000	447.86154
1192.00000	510.33618
1194.00000	564.08594
1196.00000	511.31924
1198.00000	454.56049
1200.00000	558.45715
1202.00000	560.09015
1204.00000	482.39761
1206.00000	496.67993
1208.00000	600.13580
1210.00000	540.89740
1212.00000	422.88058
1214.00000	482.79715
1216.00000	628.25031
1218.00000	479.81467
1220.00000	452.57114
1222.00000	392.05939
1224.00000	347.42245
1226.00000	611.12128
1228.00000	453.29794
1230.00000	468.89441
1232.00000	618.91608
1234.00000	458.47556
1236.00000	538.89276
1238.00000	562.06226
1240.00000	491.51147
1242.00000	511.97253
1244.00000	598.97058
1246.00000	598.25299
1248.00000	568.31897
1250.00000	582.42261
1252.00000	607.25623
1254.00000	596.15784
1256.00000	580.71680
1258.00000	578.60638
1260.00000	600.97778
1262.00000	665.17883
1264.00000	691.50641
1266.00000	636.32892
1268.00000	588.95709
1270.00000	662.07813
1272.00000	745.61816
1274.00000	762.01526
1276.00000	765.56030
1278.00000	793.22070
1280.00000	768.58246
1282.00000	885.29352
1284.00000	942.52417
1286.00000	874.58167
1288.00000	985.14508
1290.00000	1065.00110
1292.00000	1033.63574
1294.00000	1055.62756
1296.00000	1219.18042
1298.00000	1246.29053
1300.00000	1210.00903
1302.00000	1219.45520
1304.00000	1231.43848
1306.00000	1153.55713
1308.00000	1145.61279
1310.00000	1132.96228
1312.00000	1053.43445
1314.00000	990.11639
1316.00000	938.66467
1318.00000	865.43689
1320.00000	756.47766
1322.00000	658.43689
1324.00000	649.65118
1326.00000	657.19452
1328.00000	583.11945
1330.00000	496.88315
1332.00000	545.14380
1334.00000	548.97107
1336.00000	446.01291
1338.00000	386.93658
1340.00000	441.18436
1342.00000	367.67242
1344.00000	389.12674
1346.00000	417.18921
1348.00000	346.87201
1350.00000	389.09232
1352.00000	375.84973
1354.00000	323.79422
1356.00000	310.12207
1358.00000	318.66019
1360.00000	310.40262
1362.00000	285.92175
1364.00000	272.97266
1366.00000	282.93048
1368.00000	296.61383
1370.00000	334.80136
1372.00000	338.70026
1374.00000	301.19424
1376.00000	323.83966
1378.00000	425.62134
1380.00000	428.00644
1382.00000	378.67416
1384.00000	415.11676
1386.00000	380.79575
1388.00000	379.50647
1390.00000	391.93741
1392.00000	353.84937
1394.00000	326.50140
1396.00000	332.06168
1398.00000	305.64120
1400.00000	268.65274
1402.00000	277.79706
1404.00000	228.21335
1406.00000	247.51624
1408.00000	292.59576
1410.00000	260.02383
1412.00000	245.93271
1414.00000	254.25990
1416.00000	263.45871
1418.00000	284.60916
1420.00000	305.54074
1422.00000	212.16719
1424.00000	229.80943
1426.00000	294.34430
1428.00000	215.07405
1430.00000	210.57242
1432.00000	218.42162
1434.00000	208.90186
1436.00000	205.75990
1438.00000	210.83003
1440.00000	246.92050
1442.00000	133.22314
1444.00000	43.26049
1446.00000	215.14536
1448.00000	184.31602
1450.00000	190.09030
1452.00000	217.76347
1454.00000	162.69048
1456.00000	245.03593
1458.00000	216.93095
1460.00000	182.45399
1462.00000	251.94810
1464.00000	285.50787
1466.00000	246.21114
1468.00000	168.55095
1470.00000	107.19608
1472.00000	159.39598
1474.00000	371.00613
1476.00000	308.51355
1478.00000	193.96548
1480.00000	259.76758
1482.00000	233.29752
1484.00000	220.93417
1486.00000	238.92386
1488.00000	248.06609
1490.00000	240.59250
1492.00000	234.21478
1494.00000	260.40195
1496.00000	268.02115
1498.00000	219.27786
1500.00000	200.10245
1502.00000	292.19547
1504.00000	280.72440
1506.00000	193.13795
1508.00000	258.05154
1510.00000	197.19138
1512.00000	202.51205
1514.00000	216.00653
1516.00000	150.15996
1518.00000	327.06592
1520.00000	305.64499
1522.00000	242.15623
1524.00000	296.49780
1526.00000	198.19914
1528.00000	197.86562
1530.00000	260.00620
1532.00000	258.49405
1534.00000	215.48735
1536.00000	263.20914
1538.00000	352.70496
1540.00000	345.20160
1542.00000	259.22244
1544.00000	277.56631
1546.00000	270.75015
1548.00000	216.63220
1550.00000	238.75511
1552.00000	349.10126
1554.00000	256.32944
1556.00000	207.57570
1558.00000	224.64612
1560.00000	161.85324
1562.00000	155.10219
1564.00000	202.09030
1566.00000	162.22661
1568.00000	116.97478
1570.00000	245.23651
1572.00000	148.56982
1574.00000	116.83302
1576.00000	227.40550
1578.00000	224.15817
1580.00000	207.17834
1582.00000	336.48996
1584.00000	506.90997
1586.00000	596.95087
1588.00000	702.04980
1590.00000	819.24976
1592.00000	731.67517
1594.00000	743.88702
1596.00000	1136.32617
1598.00000	980.40430
1600.00000	1024.25293
1602.00000	1161.57031
1604.00000	913.72968
1606.00000	915.70520
1608.00000	1015.46863
1610.00000	1005.61670
1612.00000	938.27814
1614.00000	939.34119
1616.00000	848.25183
1618.00000	789.68243
1620.00000	819.08740
1622.00000	795.37921
1624.00000	647.08453
1626.00000	671.08990
1628.00000	747.89819
1630.00000	653.81012
1632.00000	510.18646
1634.00000	464.06982
1636.00000	516.91785
1638.00000	548.12939
1640.00000	490.63147
1642.00000	464.72482
1644.00000	358.56931
1646.00000	356.88943
1648.00000	495.38461
1650.00000	339.64270
1652.00000	263.00543
1654.00000	331.34149
1656.00000	401.82922
1658.00000	411.97949
1660.00000	312.71832
1662.00000	234.37614
1664.00000	273.99997
1666.00000	355.13025
1668.00000	325.48816
1670.00000	341.45123
1672.00000	322.28979
1674.00000	249.79210
1676.00000	315.88388
1678.00000	290.99332
1680.00000	227.73326
1682.00000	228.67078
1684.00000	251.26547
1686.00000	234.07430
1688.00000	278.88492
1690.00000	265.90073
1692.00000	156.29449
1694.00000	221.61728
1696.00000	296.19177
1698.00000	314.36276
1700.00000	296.85648
1702.00000	258.00220
1704.00000	252.88106
1706.00000	261.90576
1708.00000	276.02267
1710.00000	271.34106
1712.00000	213.51891
1714.00000	343.07001
1716.00000	378.07379
1718.00000	222.04556
1720.00000	267.62729
1722.00000	265.44363
1724.00000	231.13260
1726.00000	277.85977
1728.00000	353.97241
1730.00000	288.29376
1732.00000	219.79536
1734.00000	245.50591
1736.00000	313.43057
1738.00000	324.59836
1740.00000	279.62039
1742.00000	389.19238
1744.00000	508.28287
1746.00000	345.20273
1748.00000	349.69772
1750.00000	374.53265
1752.00000	335.91928
1754.00000	302.81567
1756.00000	225.47208
1758.00000	324.90939
1760.00000	315.61685
1762.00000	167.78772
1764.00000	313.61536
1766.00000	382.12820
1768.00000	297.01044
1770.00000	217.91624
1772.00000	241.11716
1774.00000	262.17517
1776.00000	216.06892
1778.00000	226.29716
1780.00000	286.90637
1782.00000	207.58109
1784.00000	296.75021
1786.00000	319.91296
1788.00000	206.08842
1790.00000	230.62546
1792.00000	270.03580
1794.00000	310.03442
1796.00000	282.19714
1798.00000	210.28476
1800.00000	295.64215
1802.00000	268.45734
1804.00000	138.77019
1806.00000	78.40339
1808.00000	129.20703
1810.00000	214.85181
1812.00000	220.02420
1814.00000	237.86189
1816.00000	300.04767
1818.00000	121.29099
1820.00000	185.66856
1822.00000	334.21942
1824.00000	232.16942
1826.00000	120.85549
1828.00000	161.54407
1830.00000	121.27348
1832.00000	148.31506
1834.00000	431.62839
1836.00000	222.00237
1838.00000	198.79192
1840.00000	334.48199
1842.00000	205.11688
1844.00000	171.14058
1846.00000	129.05681
1848.00000	186.28368
1850.00000	306.16727
1852.00000	252.01880
1854.00000	264.58130
1856.00000	281.11453
1858.00000	222.58163
1860.00000	165.85817
1862.00000	202.56982
1864.00000	237.11867
1866.00000	297.33826
1868.00000	303.94116
1870.00000	129.36534
1872.00000	296.97748
1874.00000	381.40494
1876.00000	248.79372
1878.00000	332.13507
1880.00000	475.05151
1882.00000	251.66469
1884.00000	189.14546
1886.00000	480.20081
1888.00000	196.24759
1890.00000	369.45300
1892.00000	502.60559
1894.00000	213.67232
1896.00000	189.26010
1898.00000	256.25958
1900.00000	192.70035
1902.00000	257.40500
1904.00000	517.59784
1906.00000	326.51178
1908.00000	303.51257
1910.00000	289.93024
1912.00000	136.02158
1914.00000	291.04401
1916.00000	227.22293
1918.00000	265.10559
1920.00000	387.23370
1922.00000	274.67593
1924.00000	437.28351
1926.00000	378.62158
1928.00000	324.54053
1930.00000	502.22223
1932.00000	289.45508
1934.00000	204.50102
1936.00000	305.88629
1938.00000	362.83234
1940.00000	333.93188
1942.00000	349.23557
1944.00000	418.88541
1946.00000	387.67468
1948.00000	279.53152
1950.00000	415.01480
1952.00000	419.70288
1954.00000	260.14417
1956.00000	230.41870
1958.00000	364.35275
1960.00000	127.80416
1962.00000	184.83510
1964.00000	454.84805
1966.00000	305.86081
1968.00000	352.76184
1970.00000	354.23404
1972.00000	240.17133
1974.00000	162.68111
1976.00000	133.62228
1978.00000	252.83414
1980.00000	270.90738
1982.00000	171.89066
1984.00000	187.58894
1986.00000	117.60584
1988.00000	150.62221
1990.00000	223.64049
1992.00000	156.93706
1994.00000	115.12145
1996.00000	129.87112
1998.00000	143.98712
2000.00000	190.83237
2002.00000	163.09959
2004.00000	214.81781
2006.00000	225.99599
2008.00000	140.63907
2010.00000	98.91576
2012.00000	227.50357
2014.00000	292.17484
2016.00000	245.20961
2018.00000	222.62608
2020.00000	213.56700
2022.00000	245.24794
2024.00000	265.98721
2026.00000	248.16667
2028.00000	252.83606
2030.00000	250.96622
2032.00000	179.33438
2034.00000	145.43875
2036.00000	256.97504
2038.00000	253.51152
2040.00000	209.23386
2042.00000	214.02597
2044.00000	251.77538
2046.00000	275.71973
2048.00000	180.70996
2050.00000	135.69853
2052.00000	213.03841
2054.00000	202.73712
2056.00000	134.84869
2058.00000	120.38295
2060.00000	157.46487
2062.00000	175.31737
2064.00000	206.13522
2066.00000	154.24066
2068.00000	82.60859
2070.00000	129.85986
2072.00000	244.01701
2074.00000	209.99425
2076.00000	146.53055
2078.00000	205.58025
2080.00000	296.28775
2082.00000	306.09729
2084.00000	204.24139
2086.00000	144.37816
2088.00000	270.19763
2090.00000	405.74109
2092.00000	385.69992
2094.00000	297.67792
2096.00000	277.62976
2098.00000	264.80923
2100.00000	215.49074
2102.00000	200.53760
2104.00000	241.33069
2106.00000	233.75894
2108.00000	135.07469
2110.00000	192.10857
2112.00000	396.77222
2114.00000	452.66901
2116.00000	280.70557
2118.00000	278.20200
2120.00000	355.35010
2122.00000	276.61569
2124.00000	222.12091
2126.00000	241.89403
2128.00000	199.92590
2130.00000	132.46931
2132.00000	190.14224
2134.00000	140.12682
2136.00000	140.27502
2138.00000	284.06918
2140.00000	378.46170
2142.00000	229.62196
2144.00000	196.18361
2146.00000	256.29132
2148.00000	237.95799
2150.00000	221.62662
2152.00000	128.39911
2154.00000	185.65935
2156.00000	320.15039
2158.00000	229.10577
2160.00000	239.69759
2162.00000	167.68640
2164.00000	63.07701
2166.00000	147.92807
2168.00000	248.82893
2170.00000	256.52615
2172.00000	271.88242
2174.00000	364.10330
2176.00000	382.54419
2178.00000	206.01979
2180.00000	308.57092
2182.00000	523.70898
2184.00000	283.06696
2186.00000	228.23772
2188.00000	309.81134
2190.00000	325.95743
2192.00000	280.16367
2194.00000	292.29849
2196.00000	416.10254
2198.00000	375.76559
2200.00000	139.01195
2202.00000	110.78409
2204.00000	254.77866
2206.00000	275.69403
2208.00000	159.08446
2210.00000	138.01222
2212.00000	181.41736
2214.00000	208.39171
2216.00000	170.22615
2218.00000	119.99265
2220.00000	186.70833
2222.00000	302.86725
2224.00000	234.49068
2226.00000	65.59927
2228.00000	154.89476
2230.00000	263.49731
2232.00000	198.68318
2234.00000	173.24120
2236.00000	352.92438
2238.00000	279.13306
2240.00000	255.29712
2242.00000	318.97672
2244.00000	278.34488
2246.00000	203.70889
2248.00000	123.15081
2250.00000	130.48853
2252.00000	208.42361
2254.00000	220.51350
2256.00000	226.91451
2258.00000	312.32959
2260.00000	332.13959
2262.00000	168.99159
2264.00000	124.35994
2266.00000	225.75758
2268.00000	259.08911
2270.00000	199.58990
2272.00000	278.22629
2274.00000	169.36681
2276.00000	202.61810
2278.00000	423.66507
2280.00000	346.44693
2282.00000	222.17995
2284.00000	277.67645
2286.00000	387.93530
2288.00000	332.95242
2290.00000	232.83768
2292.00000	303.56827
2294.00000	393.67407
2296.00000	356.97610
2298.00000	357.50891
2300.00000	326.36505
2302.00000	331.07477
2304.00000	332.30212
2306.00000	233.67778
2308.00000	276.93719
2310.00000	249.83612
2312.00000	227.94392
2314.00000	377.68460
2316.00000	369.49948
2318.00000	264.82431
2320.00000	247.32646
2322.00000	281.37259
2324.00000	215.57288
2326.00000	388.79456
2328.00000	432.50507
2330.00000	256.96744
2332.00000	302.44403
2334.00000	502.45038
2336.00000	443.05484
2338.00000	334.67761
2340.00000	467.15555
2342.00000	381.24536
2344.00000	204.22141
2346.00000	245.44287
2348.00000	433.62286
2350.00000	389.33264
2352.00000	333.21027
2354.00000	477.12527
2356.00000	562.29413
2358.00000	365.70486
2360.00000	476.14355
2362.00000	489.93726
2364.00000	345.65344
2366.00000	322.04706
2368.00000	360.80566
2370.00000	527.00732
2372.00000	532.69556
2374.00000	367.90250
2376.00000	448.90732
2378.00000	558.33057
2380.00000	504.50729
2382.00000	360.58096
2384.00000	354.97226
2386.00000	524.10083
2388.00000	396.87787
2390.00000	299.44458
2392.00000	557.12646
2394.00000	566.38751
2396.00000	489.33136
2398.00000	402.53470
2400.00000	446.74081
2402.00000	678.84869
2404.00000	387.53265
2406.00000	260.28973
2408.00000	517.42358
2410.00000	519.73376
2412.00000	206.62669
2414.00000	407.52191
2416.00000	704.96252
2418.00000	498.57306
2420.00000	392.62790
2422.00000	438.15839
2424.00000	504.38144
2426.00000	522.67249
2428.00000	507.97925
2430.00000	459.33456
2432.00000	408.94199
2434.00000	415.66171
2436.00000	449.66293
2438.00000	370.10434
2440.00000	379.70935
2442.00000	421.75659
2444.00000	348.21866
2446.00000	279.24249
2448.00000	409.34250
2450.00000	533.67810
2452.00000	533.45581
2454.00000	540.80884
2456.00000	496.72522
2458.00000	412.14719
2460.00000	452.06357
2462.00000	662.06793
2464.00000	731.85931
2466.00000	574.60376
2468.00000	500.45776
2470.00000	619.27411
2472.00000	622.51569
2474.00000	664.69226
2476.00000	690.75897
2478.00000	647.28290
2480.00000	593.69232
2482.00000	499.49365
2484.00000	520.40649
2486.00000	617.85968
2488.00000	602.56317
2490.00000	497.97174
2492.00000	645.44611
2494.00000	734.24091
2496.00000	514.38562
2498.00000	392.02072
2500.00000	572.45520
2502.00000	571.83545
2504.00000	410.43716
2506.00000	525.56146
2508.00000	517.44287
2510.00000	380.15796
2512.00000	352.32217
2514.00000	489.19412
2516.00000	501.01749
2518.00000	332.28146
2520.00000	428.03287
2522.00000	720.00403
2524.00000	574.93317
2526.00000	499.25449
2528.00000	547.15216
2530.00000	581.49200
2532.00000	541.13342
2534.00000	396.06268
2536.00000	565.27106
2538.00000	621.10840
2540.00000	314.17627
2542.00000	496.72519
2544.00000	638.71570
2546.00000	524.73242
2548.00000	440.86246
2550.00000	603.99957
2552.00000	664.90619
2554.00000	362.33698
2556.00000	205.53618
2558.00000	584.81885
2560.00000	564.52539
2562.00000	331.35941
2564.00000	350.68130
2566.00000	596.02325
2568.00000	565.65161
2570.00000	292.93878
2572.00000	292.92908
2574.00000	524.17706
2576.00000	463.52664
2578.00000	522.54590
2580.00000	589.53534
2582.00000	513.08508
2584.00000	438.02631
2586.00000	549.31787
2588.00000	531.82233
2590.00000	487.92108
2592.00000	605.36731
2594.00000	690.40594
2596.00000	755.81116
2598.00000	688.49237
2600.00000	671.95892
2602.00000	897.02991
2604.00000	694.18073
2606.00000	571.40997
2608.00000	725.15265
2610.00000	742.96973
2612.00000	549.43707
2614.00000	663.18378
2616.00000	679.22516
2618.00000	399.23431
2620.00000	536.97742
2622.00000	632.05975
2624.00000	406.59299
2626.00000	325.19772
2628.00000	753.23224
2630.00000	729.54059
2632.00000	584.80072
2634.00000	601.09589
2636.00000	619.34180
2638.00000	610.64935
2640.00000	680.24963
2642.00000	774.59875
2644.00000	779.65704
2646.00000	701.06824
2648.00000	654.44025
2650.00000	669.58160
2652.00000	585.96893
2654.00000	379.89871
2656.00000	480.91467
2658.00000	409.31674
2660.00000	362.81525
2662.00000	642.76709
2664.00000	596.67871
2666.00000	463.11142
2668.00000	422.41919
2670.00000	416.08734
2672.00000	387.56369
2674.00000	435.80350
2676.00000	393.24051
2678.00000	334.07370
2680.00000	422.03461
2682.00000	341.82767
2684.00000	366.20752
2686.00000	384.93408
2688.00000	257.06024
2690.00000	338.56732
2692.00000	337.24652
2694.00000	394.43845
2696.00000	499.30777
2698.00000	352.97220
2700.00000	443.04636
2702.00000	557.68066
2704.00000	567.68317
2706.00000	552.43628
2708.00000	327.93649
2710.00000	456.92938
2712.00000	496.71265
2714.00000	285.56314
2716.00000	769.67230
2718.00000	561.27795
2720.00000	308.71167
2722.00000	598.92322
2724.00000	621.95123
2726.00000	498.61295
2728.00000	385.32437
2730.00000	453.09592
2732.00000	585.91028
2734.00000	295.92786
2736.00000	421.30597
2738.00000	456.82333
2740.00000	45.63791
2742.00000	309.18344
2744.00000	594.20502
2746.00000	415.16568
2748.00000	218.11717
2750.00000	541.16187
2752.00000	566.93213
2754.00000	469.19049
2756.00000	444.29977
2758.00000	383.37515
2760.00000	355.43042
2762.00000	486.92133
2764.00000	497.24246
2766.00000	380.65527
2768.00000	567.67987
2770.00000	492.49121
2772.00000	353.43942
2774.00000	481.88583
2776.00000	661.74664
2778.00000	467.82794
2780.00000	442.61386
2782.00000	585.41296
2784.00000	516.03992
2786.00000	498.27875
2788.00000	649.69366
2790.00000	664.69080
2792.00000	428.80731
2794.00000	326.73999
2796.00000	476.10037
2798.00000	577.69843
2800.00000	549.15594
2802.00000	519.98944
2804.00000	323.01630
2806.00000	435.27945
2808.00000	587.75854
2810.00000	454.62799
2812.00000	654.89270
2814.00000	688.69922
2816.00000	369.87936
2818.00000	139.89236
2820.00000	417.84766
2822.00000	642.23352
2824.00000	376.61813
2826.00000	193.57198
2828.00000	577.26025
2830.00000	368.93521
2832.00000	389.33646
2834.00000	592.28271
2836.00000	430.17523
2838.00000	399.53860
2840.00000	501.19055
2842.00000	425.71088
2844.00000	382.25223
2846.00000	707.96619
2848.00000	311.26447
2850.00000	151.46506
2852.00000	501.00146
2854.00000	479.00037
2856.00000	238.04623
2858.00000	410.18265
2860.00000	453.85983
2862.00000	117.45028
2864.00000	432.07059
2866.00000	391.85736
2868.00000	297.70001
2870.00000	374.90448
2872.00000	119.28084
2874.00000	282.65744
2876.00000	544.09088
2878.00000	405.15262
2880.00000	123.94730
2882.00000	444.59113
2884.00000	512.61591
2886.00000	445.62534
2888.00000	591.25897
2890.00000	455.22519
2892.00000	571.33459
2894.00000	488.36087
2896.00000	213.59137
2898.00000	483.74026
2900.00000	748.40283
2902.00000	636.20209
2904.00000	531.37604
2906.00000	670.78589
2908.00000	398.39508
2910.00000	542.73907
2912.00000	725.61243
2914.00000	401.53610
2916.00000	287.10425
2918.00000	713.99847
2920.00000	779.25739
2922.00000	359.39633
2924.00000	372.15424
2926.00000	644.61224
2928.00000	567.45850
2930.00000	357.38092
2932.00000	520.71826
2934.00000	650.99054
2936.00000	239.76578
2938.00000	239.14511
2940.00000	723.61035
2942.00000	285.66266
2944.00000	292.79260
2946.00000	595.71069
2948.00000	531.13556
2950.00000	276.03607
2952.00000	492.75507
2954.00000	455.15085
2956.00000	250.14116
2958.00000	356.32266
2960.00000	302.33441
2962.00000	359.26294
2964.00000	549.86401
2966.00000	551.68353
2968.00000	268.37500
2970.00000	347.90988
2972.00000	401.39600
2974.00000	403.65439
2976.00000	647.22736
2978.00000	414.49023
2980.00000	236.02245
2982.00000	327.09628
2984.00000	341.71637
2986.00000	176.40831
2988.00000	326.68289
2990.00000	511.23074
2992.00000	554.59723
2994.00000	730.87250
2996.00000	512.14246
2998.00000	416.72888
3000.00000	448.61435
3002.00000	275.01883
3004.00000	598.65460
3006.00000	661.76538
3008.00000	528.76288
3010.00000	692.86798
3012.00000	816.61127
3014.00000	681.96246
3016.00000	420.78873
3018.00000	390.30774
3020.00000	667.31927
3022.00000	570.60852
3024.00000	450.43085
3026.00000	516.92200
3028.00000	528.81372
3030.00000	521.28424
3032.00000	710.81335
3034.00000	808.85980
3036.00000	745.23645
3038.00000	889.50250
3040.00000	313.11700
3042.00000	343.52023
3044.00000	896.90002
3046.00000	388.57239
3048.00000	795.73492
3050.00000	610.07910
3052.00000	236.94420
3054.00000	873.62891
3056.00000	322.01602
3058.00000	296.81085
3060.00000	599.62244
3062.00000	320.41980
3064.00000	272.65869
3066.00000	334.48715
3068.00000	217.75180
3070.00000	111.72390
3072.00000	379.26462
3074.00000	613.21014
3076.00000	343.87308
3078.00000	-41.34941
3080.00000	-2.48608
3082.00000	69.04053
3084.00000	36.43157
3086.00000	216.45355
3088.00000	414.48663
3090.00000	110.16382
3092.00000	567.22314
3094.00000	634.21729
3096.00000	32.63124
3098.00000	46.06446
3100.00000	286.68692
3102.00000	597.49158
3104.00000	482.06808
3106.00000	0.87498
3108.00000	297.42038
3110.00000	331.28229
3112.00000	482.60193
3114.00000	841.30890
3116.00000	392.99796
3118.00000	474.53821
3120.00000	557.76276
3122.00000	324.20847
3124.00000	306.25537
3126.00000	244.31699
3128.00000	594.38312
3130.00000	834.62042
3132.00000	531.39899
3134.00000	556.21863
3136.00000	296.23398
3138.00000	473.98676
3140.00000	1001.06824
3142.00000	472.92081
3144.00000	56.80728
3146.00000	48.01142
3148.00000	353.09610
3150.00000	725.50189
3152.00000	492.31812
3154.00000	419.12488
3156.00000	475.90530
3158.00000	267.63071
3160.00000	226.05548
3162.00000	439.71881
3164.00000	357.65469
3166.00000	368.70490
3168.00000	1072.99915
3170.00000	337.04227
3172.00000	164.97838
3174.00000	546.37482
3176.00000	108.51195
3178.00000	929.20697
3180.00000	562.90289
3182.00000	322.50372
3184.00000	1263.05139
3186.00000	351.85477
3188.00000	539.47943
3190.00000	966.73938
3192.00000	560.70258
3194.00000	501.90430
3196.00000	304.96344
3198.00000	114.21732
3200.00000	223.49898
